49.611369076105795
50.323992482870175
52.70833578028965
55.640794089318696
57.658405742475935
58.911550418901015
57.976458887930505
58.67629239900475
62.350799516113625
69.11397505219429
71.14606708348971
71.40772878821176
70.49986647735687
68.28677945713945
65.31854379005686
60.88884576696878
56.225792587287835
53.43837677997072
56.82707575623429
59.90854652585767
58.247802019693474
57.15136267460476
55.36174198660649
56.88549356441574
57.76403349450734
53.849016635761025
53.30527882380494
52.856112576963234
55.25163922271561
60.75474976905043
63.03032264260167
65.2235674907441
66.63421351412907
65.9611302695449
67.21366044392252
64.69141961039189
61.8082892483098
60.15121501913627
58.518966393063636
55.75903161595738
50.811486944278634
51.23618039581562
49.82026585940928
49.66261887452833
45.99346454848262
45.34045716916943
46.448663302375586
46.65837697608915
47.58490016808838
47.45990694386903
45.83209344829442
44.43360005226664
44.72474073235308
49.826746051915215
48.75972989837639
50.448513353373144
47.43810660375889
44.032421387883275
43.95996043269261
43.32077149581441
43.609350821755925
42.784066229167216
42.88472456244288
44.14307621420346
41.86246685820639
42.56746952867105
42.63498300725481
42.46085093612698
44.051303802908166
43.15528263947172
44.271898845720315
42.872620560847515
42.837634992394506
42.63338536845889
42.68543820208502
43.68413585331545
43.605175456758786
44.98070087241998
45.118748484759756
46.94715133603107
45.93831659734444
45.92394133448927
44.40151170578686
45.501213139733444
44.68455327856562
48.34319514409299
49.01568409911899
50.25315899785639
48.07838424430155
46.67796594116264
46.83306047167706
53.669173879993075
55.54276771498244
58.029497789691106
56.708287934265265
54.27049633276503
56.15850151077732
57.48346505844709
58.362820330965086
59.173729364021504
61.090595917598456
59.559974647958995
59.91748290379082
60.33221255801436
59.92845460494134
60.55417007082941
56.86006769852995
54.6648601860769
48.30298562751801
46.7788893252479
44.594115907302786
46.03377757232799
45.63210637520032
45.28754792616911
44.04669502169298
43.687959819520074
44.76961616929259
43.805319296511605
45.798005511428826
44.288520046709294
45.0371034546789
44.21265799240055
44.9317400632964
44.62679318508796
45.442388221967
45.48082243940173
45.735221362015025
45.26313597613653
46.27004674207286
45.93660920951059
46.03664849148745
45.848615203801785
45.727694134953325
46.020968227264824
45.44446586208703
45.26024523595622
44.18811528968318
44.148930336705135
47.73065310167836
50.30385295250189
51.3598811627259
49.73800518211525
47.32890389679942
44.968921026136435
45.72277020021165
45.36724993874314
45.531133567594935
44.72634419834963
45.110958723913555
44.67344310421552
46.62164180785868
46.222286784247686
47.62586349422586
46.72896698000443
48.80833724782648
47.79151253561761
47.344479818655216
45.57347023038675
46.19736284399754
45.37456807042352
45.87332090622474
46.03438773106073
44.44829146224214
44.7770363295701
43.635577265273085
43.64370678005719
45.26632825294111
44.45951417112927
45.18310804999267
46.5883368081626
46.75938193816495
48.52848198115594
48.97799346487331
47.40307820920995
48.662493289820496
47.806599600066974
49.38590631119666
50.88109874079125
49.24127243093932
50.25795434228513
51.76958800220057
54.33587967139761
54.70599610982305
53.93422514911986
48.70262434759074
47.65882000546528
48.81921869142309
50.47210544769638
50.391689278788824
49.227369119029674
47.63345324971369
46.44579455727799
46.27810509622257
45.42591836317443
46.1628241298874
46.02673842332537
47.92035178190688
47.25218666018373
47.8292098459954
46.798859446936646
46.881836449247494
46.391057940209635
46.66050018132711
46.36718833604105
46.05604419225715
46.0954842838145
48.15651565032834
48.31404309851292
49.60433941719974
48.80829804614766
51.86883611877057
55.84117957753
57.44964381756397
59.24179092647935
59.15828552067874
57.037277780063505
56.47084708253957
55.06887168049237
53.48714121730594
53.628459005682565
52.61013530431325
51.765870514409954
51.98705622535201
50.97744170795873
50.935336760474705
50.558204502634105
50.3213545328613
51.071490248204526
50.10559065749717
52.32805629154501
57.29084918312686
59.978546952841334
59.82646078393665
54.789468982238965
48.789845766463465
47.04946716208503
47.55802035674261
48.48279093253552
48.38915225569074
49.60365887696909
48.753131093089294
48.905820211796886
49.827014364693305
49.20919499681436
48.1801634355505
50.7573865600948
50.38583064385169
52.04141660574769
50.9428417228743
51.31448163021798
48.67289188731025
48.53793764950338
48.23849381966947
47.83038968561109
49.54993722349328
48.81767170404863
49.40128451393881
48.01428737055365
48.418725467178625
50.132254977129044
53.78714553741178
55.28819405307444
55.947728466771764
53.32358818746209
52.77158937826596
51.25817195474758
53.10979582700195
52.20060768424955
51.527760141938565
50.77430735151423
48.940572725810966
50.434941104740844
49.665624112730676
50.62566823087923
48.878623958658544
49.62815072504862
48.19210967528825
48.61207548450722
49.23030874516258
51.72848569644677
51.70298645778118
51.675636008769175
50.07047661557855
48.39558482246703
49.09369396349562
47.625764275061
47.87119023289093
49.15349651799986
49.42259878724629
50.31563634456695
49.18276242019256
48.168167170294986
47.748164477489375
49.37688632139837
50.404727597678225
50.134053429094706
48.77794459953598
49.57370804938913
50.443846860338
50.715808595326806
50.83844054941716
47.01258530751969
47.58747449317552
47.30629043755309
47.82785060956695
48.38865606970825
48.21593993898932
45.82629981104088
45.61370730133036
45.81155748381576
47.516377267105185
48.932685917707204
49.66203771061731
49.54635068484083
48.89028023623977
49.612691453304734
50.00990903516447
54.89311282362936
59.06911875554001
59.061977027743815
60.48587469652244
56.74608438990225
57.0962410330636
56.95241602934977
57.08250902315838
57.772469440774636
57.955926113758885
59.6076778707738
60.06838749360352
59.86476751994659
59.889275486968025
59.46618610649453
57.98493535354487
56.72539688008806
51.13942477263324
50.51861384928475
48.73370289974988
47.87398551153152
46.37143478991891
46.89639543922737
46.47451480033467
46.74372051676393
45.99145807332502
46.50978415935258
52.05422476129462
52.85663781500459
52.588664225707525
50.80269773489749
50.422462811350016
49.08882208948153
55.648611862451496
63.74813619306572
69.19314211993712
75.31680714957092
78.02355049626343
79.76838772385064
78.6376876225657
74.53733501667135
67.78322555645948
64.97672048668277
61.374339011562256
61.730848336019555
61.95782916450165
56.569313764757894
55.263378064115294
54.58353757859188
56.960778973188376
59.90210921640909
58.63653932725264
58.13499044454058
56.28451422307884
54.53028575117972
52.478709984853445
56.54775740509189
61.662115385246075
65.57315783591937
68.99880008391645
68.12872209159244
67.04551959218446
66.09167737952313
66.33389470706311
68.57134467771884
69.7878446962828
71.4079106450673
73.1397901861312
75.25628541890217
76.3409484856037
75.52654482748204
74.69057868225485
74.13363240775642
75.75900123032513
78.63212919407498
80.91000000543656
82.5092238492507
80.08358874923559
78.16982731467547
75.62315715607201
75.78496472094258
77.47846901602283
79.39368610465348
79.33625874781875
78.71066425908194
78.41837057636806
78.48639095647258
78.86086134389865
78.3534923659354
76.21239126549533
75.9336581063221
75.21194049431995
74.60560219342666
72.93127032046142
69.70333020743652
69.96516294918561
70.19130417462505
68.21177251229406
70.3186374500331
73.1686430129845
79.98398364784684
85.32972188307674
88.00416976103985
90.47453691267886
91.90073677489015
93.17342828648407
94.81274979986983
95.77334782942008
96.81413676084513
97.54555557174031
97.98957588838594
99.03230076472248
101.11580327950126
102.65885212438073
103.88948429356937
104.92306312779283
105.17363527408908
105.75923121506561
106.40958562041186
106.56351082946225
107.35069171689238
107.7691522758303
108.02557255406663
108.39907661239795
108.32262526165147
109.21295287124248
109.82943456721522
110.12930611168719
110.11590304947902
110.2413317997766
110.21883031949666
109.99362870250695
110.2440619771037
110.51518580850608
111.1866422777383
111.96177251646085
112.65190550547152
113.34082386838519
114.14870662016655
115.19409844021645
115.73341567798994
115.52931490034406
115.39286337189709
115.11724591685324
115.03118933500251
114.82979701864458
114.65160144959398
114.22656370334406
114.50433650505148
115.08985879334432
115.57338491916663
115.70380361643743
116.10944808678732
116.0641738886169
116.29464322762215
116.55600522466541
116.54170748430487
116.03569488171192
114.81807145848082
112.67646247877694
112.01150307569851
112.591278736838
113.95984036513251
115.77070461155667
115.76916058760355
114.39048988587858
112.66318570914169
110.73299739313138
109.15481801959156
108.475544086344
107.97389424724325
107.43282881145463
106.14849283278394
104.7284861805784
102.29881335701297
99.6144263499655
96.80500812219587
94.29152250094462
92.94643577625986
92.72499446771354
92.06785866173522
91.27269566132954
90.12896433931714
88.67278286912527
88.98240613661777
88.00945928119391
87.04710415756391
85.5594973770363
83.00358661631246
81.92592190109703
80.63614392297309
81.92328184661162
84.99721707976639
86.32840903242369
87.14031142729594
86.89991927293183
87.35323826751095
88.07618757499752
88.36482039605943
88.5429595149664
87.54762269614771
88.8151825749931
91.83979180688299
94.96166293158313
98.86077921024916
102.00531164218096
105.24491368832568
108.62404675455385
112.1269069144633
114.1618113977202
116.64395385403535
118.87582466374955
120.29853939360322
121.764881596068
123.12398339079252
124.52929695644518
125.50955241138999
125.85610084513405
125.91920523584693
125.22830963941544
124.28094549675288
124.14141930250103
124.6834605220129
126.48562155717553
128.65576153756223
130.87924696570877
132.94426932867194
135.6138674279969
136.91940330925416
138.8686018265064
141.20293450846773
142.7501854868059
143.91258981668713
144.92057051940517
146.23898945037763
147.17665756878017
148.03296601938473
148.88790234253077
149.5014676453123
149.78543493411138
150.01864635214397
150.12983113475846
150.15457212632637
150.03501167392378
149.70683411252358
149.51015735694057
149.03805396612807
147.66493763419996
145.22897022464522
142.82752068102968
140.0867448928026
137.6632655579643
134.91988726512076
132.50440333673814
129.7463230295843
127.37018989244123
124.84815052258027
121.72384518155458
118.6438638244881
115.28092640308186
112.74540616120802
109.43822530698358
106.44286529681287
104.32936158943686
101.61296969837264
98.06495100508069
93.77627732482557
92.34042784312038
85.56294438807205
88.6156141757561
86.70986421171773
85.69728533178996
86.46191403699466
84.13702006944945
83.18063047267393
82.72136478747504
82.40249955008724
78.48159679049775
75.67850832948825
75.88884425046894
74.61625777654018
77.07882760672425
73.73317429854698
75.28738677757786
74.20164626670527
72.96118770190787
72.45849859939517
70.09282817003177
72.35174449763514
69.18851752528256
65.76648179948315
64.44576232626541
73.45592373259657
72.79444911085668
71.85336592551961
68.96533843286441
59.87356168187638
58.15431720257782
60.783859128302346
58.58786473944799
59.146378220350336
55.78119215588477
58.17827280847633
61.684421798318574
62.294004246867146
62.04923289654314
59.0702338050573
56.93850462633935
58.24276926962504
61.95068248846907
68.95836735863088
71.0245618511317
71.21982269322731
66.34484938932424
61.15443339920296
57.1244577893744
55.64457101047642
53.358571521449555
54.38472042503565
65.74371496615994
73.88208277049728
81.77911742480197
86.06226923612417
85.64799820112252
82.48807281161679
75.11824134701628
68.20678584890015
63.989807528701775
66.09396173265992
65.8304217706473
63.72634337973392
60.71125808366558
69.22518252998934
63.82438303717851
63.667365770800544
61.87135448007056
64.86421529680521
67.96844282467187
67.50573672380771
71.62389277159787
73.30743641877271
75.37432417969858
78.43169324641545
80.13126547185662
82.58389003509797
79.6832536274925
75.56976839148265
67.31079472286524
59.73282634079702
60.31076549173804
61.36484942524958
65.34927598883937
67.49580720638492
69.26419118128157
69.84541201306376
71.99241444977088
73.52080268428004
73.30329502881528
73.34272790065842
72.11945022718933
72.42386694668144
73.48704916300144
78.17398511666724
84.09794474860661
89.36083342931394
90.76962384689273
86.99671153515914
81.68958908985826
77.37052628450957
76.28300014573362
75.67223498121592
72.92497794427362
67.99456943285549
65.66532532487155
68.96177529633826
74.55645618811597
78.66555164138533
81.34979249074289
80.12935111569212
75.59468100404908
70.74774436561576
67.5244293020852
68.99282564272464
72.73185958263403
72.654155490082
72.68077190013203
72.51105693974395
70.32394790276429
71.32949995337246
72.6735349131946
73.47713819175793
77.45040528809055
80.89544829721584
83.79171271356955
85.55057180042115
85.08304591320918
80.93109605278717
73.61540039842956
70.08557725421977
70.08186644838919
71.94442392210699
71.67465076762542
65.0026780235068
57.385542437136436
59.30788484865209
65.24936761145756
67.64907501325706
68.73249979002802
68.16455612449816
68.41007058264756
72.73472330694096
74.70689357465724
74.42864168493048
70.89282088126807
68.48996871378236
68.38849749492351
71.65647495233205
71.87313018961478
71.93907009552274
73.27908299877701
77.41902150199374
81.24218151368902
81.50637996500488
80.85496513274552
78.7890645051276
79.41329264500501
79.77257760420113
81.71962945890759
82.52471467828465
80.86087570935172
80.9729672650819
79.12379610669275
79.98010075921346
78.32605145633755
73.88426910016216
68.72472791529098
70.34370554845549
78.73119469369541
80.19757827642069
78.73373326747881
74.64587359949843
73.58915144038646
77.04038649143432
80.69330811308419
81.19988234061134
81.29998116976046
81.9513116762713
82.66105967586711
84.62735972944076
84.25508731960502
82.50218428335657
83.14416030258994
84.83368053644658
87.35620148606749
87.73925248339772
84.18817226468097
82.38341913366871
83.39125033191858
85.66656982638253
88.77894895984977
86.34172915614673
82.70566202645395
76.05035240103096
73.36143927747207
71.35371308738718
69.19419119993658
69.37722326509005
68.60329457569009
73.15835104073807
76.13559982315448
77.81113354024518
77.26292224372932
75.47984412502849
75.29927346437132
75.13485747649497
74.80851881253085
74.75008463225006
75.74767778593083
77.64058280286577
78.97111699816931
78.72432928731465
77.99101629449193
76.96674385433062
76.99852523341775
77.64364944531695
77.24161872381177
75.91900812887576
74.95096452902288
73.21386861144143
73.2835742275471
72.31629896762271
68.90899910465173
65.93688833656617
64.66109699235885
65.92355003670541
72.14686831845185
75.88224870950991
77.77967213284533
76.73022074264688
74.72023365724458
74.64115544452437
75.44595743327451
79.04094810532615
79.86682651190854
81.34473050478229
82.1900766509609
83.74770499330448
84.95715424581587
85.74103845875628
86.54680360850905
87.90733741340856
88.49225658580387
89.365349897886
89.69077639333028
87.87680717813898
84.72217745484313
82.56701200942932
80.3813622024268
82.18002660845843
83.9125230381906
84.6601023241409
85.32610498681171
85.69617818648466
86.09799813908005
85.721829235534
86.01498447661831
85.85109850010728
86.59302666645146
85.43957813347731
84.28065909501603
83.2312767258175
83.15824963599121
85.65953564569088
86.29860911735402
86.50544782668989
86.37298013310628
85.22834754636928
84.72172680824818
84.77148758179626
84.53972066323773
83.98329074205147
84.22184662316147
84.84523144147275
84.93732134529883
82.11915192017315
77.37422904170575
74.31210622815097
75.1698667609597
79.6779677488228
80.38899391252319
77.91611351783914
74.66675078185081
74.96470730210598
79.10289776981341
83.2538081546306
84.4554268500119
84.6372527994113
83.26104219778168
83.18351976606894
83.72435005036681
83.81029659528039
84.83925445905489
86.26174213337887
88.98946365667125
90.28141578070459
90.15120817064859
89.36641547005826
88.65653295264366
89.94866515067329
91.55024965895048
92.77809460432475
92.90870199401733
93.17356049703068
93.31347198844527
93.6695692720933
93.65232285138103
91.7513408366826
91.11804390928174
91.8935884954389
91.62828092587917
92.1562587674032
90.1332975172936
87.31492336737604
85.59478176129205
85.58901482712628
87.15522963147977
86.846772730884
84.31866253998086
82.31613829945074
81.41252711701752
78.65631810381875
76.53720499803073
70.22293221812524
71.3309279315361
75.50780181388521
79.45465194132188
79.3312137518042
73.32737506645262
67.80529632612236
63.81768997256137
64.88282866163048
69.7312737587342
71.37918008149364
72.37438133556924
73.14274032634533
74.12017652872072
74.59717159914331
74.31282864899329
71.74472639343813
71.68459626244639
72.58389896972264
73.60749430366735
75.32237026587543
75.34118550974954
74.81194845780377
74.76299412787286
74.814138503106
75.17244978934035
77.63856206670731
77.4309384671073
76.50268726839504
74.83497264301451
70.96480653160026
70.64231377485547
70.86647429339442
71.88562435732888
73.94121298046446
75.52862488695469
75.30873599465673
73.81744303684113
73.05111719961934
74.98399606853772
78.42530877113805
79.23536768205192
79.82615521712425
77.50727215558744
75.60928235730327
75.8288659030839
78.84150797732129
83.92575593294502
88.75779966541998
90.33483322530097
89.16384459408519
86.93386304324292
86.06464543445132
86.36754516833383
88.66039377799318
90.74724515597806
92.36419225618671
93.64077343051027
94.66583500574255
95.10339690726134
96.19522564604436
96.69902381800955
96.91289242409142
97.95628993572768
98.5944881710912
99.02348368078508
99.37665443301456
98.72921134446112
98.33164862097637
99.23009980028932
100.16848817673801
101.12917288069427
101.97114114645082
101.65698066039923
100.11160517031078
97.61324378486779
95.01982509592699
95.85785354619158
97.89527503619928
99.32658712171974
98.60433480976275
95.58169211038516
92.00871372095457
90.12941041978183
90.42305311653315
91.21672984810589
92.34390293923029
94.81843039220048
97.41853643334913
100.16632414311199
102.75685622669569
102.3181681413389
101.24723718336608
99.0926078707139
95.61881694013904
92.41207883658296
90.26703270535825
89.91459370203681
91.58016011374345
94.38181826447901
96.37825996722323
97.97671940124881
99.29522338137483
100.8600634340237
103.41867541611717
105.45678310789202
107.16260011932224
107.78240610642335
107.71785693965833
108.09598212723586
108.72987677843905
109.22196813697305
109.72823802594567
110.09100448004087
110.70879400677255
111.54383862993537
112.28210604355945
112.21713017543178
112.13281033094064
111.98488733195381
111.5910924971299
111.72668946394096
112.3998747743941
113.13629768750965
113.58494821863529
114.02346346383999
114.02237291896697
112.41292804975294
110.08565178062369
107.53927929425001
105.44599380794438
105.2755458926276
105.53803730232408
106.17588473733473
106.71039454959707
105.75068987240374
105.91507949848258
104.97212611298957
104.8751802723173
105.32832180399971
104.10191225490539
103.06218247839917
101.33808958915112
99.98680202502324
99.8589267416923
99.98110995149675
100.83390294235024
100.09491353394694
99.45703978304381
98.75615460649901
99.31571296817198
100.84671138221177
101.60334368029997
101.88634668439755
101.33692971545507
100.90826652625053
100.67285155525585
99.76631016213817
98.52516343957035
97.51286708192708
97.68798719652825
98.01198373232045
97.73880882604247
97.40599156225993
97.71961919937827
99.47285588873189
101.09751826536248
101.51096907060138
100.25593822552194
99.10788387138138
97.96168634269837
96.06247460369336
94.87178752445931
93.89843837200824
92.89126662617292
92.43751164038798
90.93280883033164
93.5328916259683
98.41910803351664
105.77732232918278
111.75462975823773
115.40189322413423
117.16318762515029
118.11790459402972
118.89638022098242
119.25288855178242
119.07463967566646
118.45641011750715
117.65915125864308
117.68453318054478
118.13922632465537
118.48887914776266
118.89725875465204
119.33299265698427
120.02518494293236
121.74842217934686
123.26472351086933
124.53844854780183
125.38245559015151
126.02831785675825
126.01224233476674
125.96403252567758
125.91809533119329
125.49868599058941
124.93587611285623
124.34199764157009
124.06001304880138
123.99208881343421
123.9699844927006
124.15411512475012
124.56779673704477
125.5202647177528
127.1296125540658
128.5104397062642
129.7441144488925
130.82677036180792
131.72193952146426
132.37573897489634
132.618842095654
132.626759548324
132.0324437045186
131.50941253179258
131.20310730358483
131.10614091724688
131.32908321302335
131.49461108054524
131.7151411311633
131.90682560535427
131.93118029310978
132.28642352354515
132.94485899765866
133.63202332767347
133.8131793352364
133.5660305973539
132.84787624516918
132.39996497638705
132.02714049835623
132.10289818294038
132.1295141817318
132.07808682683876
131.7879331549833
131.35848363484078
131.06211503499114
130.5139723513191
130.23615177333045
129.4807710982969
127.49675323850278
124.5840413263418
121.6541971736343
119.03349661394944
117.9130716977902
116.18253411557113
113.75288466304453
110.122832922003
106.43966302913687
104.16374052858698
103.4302363307257
103.29412203424619
103.46580289342516
102.99331641559705
101.66266687174654
100.7615176361221
98.35487068042868
95.95471869717754
95.77740072229079
97.86391663353389
100.0491665579597
102.18544032555582
100.99501023999007
100.40498465426782
99.90756059946762
98.84193604963484
99.27443735818805
95.96889087527619
93.46193138667307
90.82247659723019
87.98136286617154
87.95585762055771
89.94173890828769
88.79311754997308
88.62870241488113
87.0823314728686
84.31147143114282
82.95212252709081
81.20118982570281
81.59665692467561
82.53987126718602
80.0240711021784
77.95169428354104
77.70426769616023
80.77495196815633
85.51532882880383
85.58196942514039
81.52298442648387
80.14764774451989
78.29042227351525
80.4421128257712
82.93785398547404
80.86370844058455
79.75132244339743
78.64006266059513
80.97592071171366
82.01771337304038
79.62867966427959
78.86945650437679
77.14582815987738
81.0273904029222
84.80289500751375
87.0613439563271
90.43089180703173
91.79998104390457
89.6136697323441
83.80731925364202
77.86451031267171
75.63487619004316
79.43921735817683
80.83568126838844
81.4970025398792
80.45581748661272
79.03212667491619
81.2120671254938
81.41494444574705
81.9826490955318
82.4531461436484
82.22150629369386
81.81012480226744
81.76548809101244
80.41672054485866
80.33989953759888
79.81664360104347
80.07723639441673
83.27661293369326
88.40692005239808
91.33656916750259
91.7871196302998
90.81317671450245
88.68720997191461
85.47249292201234
81.53162597361727
80.43901610948302
81.43660576563259
84.31891973998866
86.20452186756502
85.9152547523105
85.82739206896173
85.74276681796557
87.56392363738276
90.22117287577494
92.49873715898863
95.0143072192485
94.60458305808044
94.93923888827159
95.14024996521488
94.77292408513938
94.78746368245788
93.77224493037481
92.91894397349687
92.4636424620062
93.20062615698302
94.23567373540767
94.65545019107748
94.53371462092069
93.95417973831974
92.83598805419271
92.68659030615352
93.52297492116804
93.90147047485729
94.10514880430217
93.95905204977457
94.34243524655483
94.32688469706808
94.11484019730011
93.97159647587482
93.61492405836911
94.55292260418217
93.98560132485441
93.96480762617661
93.97077354488563
94.6992469574799
94.26440940832045
93.55596332787982
92.65636178269803
92.79358067810118
92.94596485282898
91.98953713023637
91.67113835226101
90.78064291274721
90.1372324765826
90.5561199414616
89.00038782006052
88.69402329167352
89.77743717020275
89.2696955786204
88.94456310412116
88.62185500304894
87.5084968173629
88.21921316068091
87.95696635324902
88.13367797132383
88.27201306243352
88.34031853674306
88.74487134888783
87.40277464866604
86.98105638403145
86.7824226844293
87.19432477578593
87.49995515419413
87.35303314118961
88.01387204397909
88.63714629493371
89.20764349644047
89.33155842957113
88.25306532995607
87.25987464502349
86.98244085982505
87.11881467640082
88.25941206458234
89.16063841385473
89.24748582216648
89.86034291864111
89.32948496057267
89.15658590429805
89.68436086290559
89.64962056713881
88.11546063271022
86.26825955287163
86.09046414732332
87.25401583752056
88.16368058603202
87.57554938300113
86.11041358150455
84.71761844920088
84.77133151907961
85.50586208592071
87.96177852187813
88.40791592762555
88.54882181770508
88.45083537465491
87.9297330457757
88.00048975090257
87.53565071201788
86.3004021680686
86.26464215941405
85.98539775242692
86.05382686624368
86.3166264475336
87.25133219684778
87.65999261488457
87.31262747020165
85.94138125216136
84.92047565898488
85.27626569444317
86.76294766189108
87.17836051871856
86.22528693873795
86.6664973470533
86.85170319691076
87.40552418499361
87.68627183610934
88.31961971765384
89.45313162095704
90.94999001623759
93.11368104159043
93.45778538713672
93.8153457735385
90.41027894806905
87.1534916817
84.24237701056377
82.5914522766808
82.81703730350002
83.54544524443635
82.98032202931387
82.8543191550931
80.39600925638283
78.64243065344829
76.79585034927959
75.18907274880422
75.21476404926884
74.16496485372133
71.342349541915
69.65919039093887
67.83362643771098
67.28842083818662
65.52301693955825
62.64213632568621
60.728256488957854
60.851403315270986
62.127967813067286
60.94843139573103
58.58482945052773
57.81736846987257
57.17459507975588
57.80012977637927
60.686978835842574
62.49926529023378
62.88748905476841
62.50101738922217
61.40576674411123
62.07311472914409
62.29346539789619
60.0672082909965
59.7432249538811
61.29372554353014
63.43026485786915
63.770523800974146
66.11618968581627
63.3176268898461
63.29057358802844
62.00768271729422
59.32385833180113
60.13925602588076
60.18809637289144
60.830609671665236
60.608212054035654
62.69505276178845
62.67720558005722
63.86943523023565
62.91838121746183
60.98289099813085
62.69398450983616
62.29073224076857
62.84557067829382
61.92131956800647
65.89651575428141
70.99511133675605
71.21348943546107
68.19676345763365
61.268631449670416
60.766712828368554
63.82514975099844
66.35698333886651
67.77009776226936
71.2441352969244
74.12222030159188
73.24226316264811
73.29890256398292
69.12291968166485
68.7651468504325
67.37591724856614
68.31263521838689
70.03562697139938
68.7997537460023
66.02507041516384
64.80335400803409
66.04121340636783
69.79689051286594
74.0398594888961
76.15985231146686
77.32560387658995
79.39470688921648
80.60809983733145
82.02227378756861
82.9470840313399
82.62756396666427
83.37443010091417
82.69430699374433
81.77230814262995
80.00705071880127
79.36177728456778
81.38123373617861
83.38488977096252
85.83103987465968
87.43797617596026
88.31386186014335
89.83022220320898
88.06868262770453
86.9821838479891
87.48078200935579
87.94859377083229
87.58006571319403
86.09885829564274
83.91299134037727
84.64976426584502
85.90135315130475
85.73675525745122
85.87738129277976
85.54220840600209
87.1137671643661
84.73528529874159
80.57518230499281
78.65802930636518
75.07597277617906
72.85441241368198
71.17378358589576
73.87871694422164
74.9197065373022
74.96422420342347
72.82513375373273
68.54086675018735
69.8848883121738
69.17019654576406
67.99239971873176
68.26670704378125
67.90617466610712
67.43446449777029
64.9416507908018
62.07181787762661
62.63764759308822
63.6560814908357
64.23081034583224
64.3575512868543
63.4619488149105
63.63883244348259
65.89743210647949
65.53166837599483
64.97433206552361
64.67370961144812
63.90917457496614
66.08384648890805
65.5240841818102
63.09267950090117
62.11052166138712
62.42394894952635
63.197483355228
65.38727126207048
66.52362797565944
69.35335565013307
71.42124323813553
73.42736484553052
73.67822370533258
72.08579273409556
74.01180072638864
72.80428862951631
72.14497415391617
70.48809764169317
68.40192028819473
71.31281074905802
70.70993001753294
70.06818780679157
68.19453562618615
67.41648476721308
66.03826538413347
65.03836764334372
64.65454276962382
63.53238902267322
65.57708109276402
64.44221444101
65.22441111789306
64.44988948131471
66.1204601069604
71.15229530809842
72.43521725080323
73.3256644519734
70.7793396942301
68.80761814656836
67.08613467963323
68.62217987944052
69.83274741551926
71.19916489231878
70.54577603387565
65.1193754823847
63.961873508243166
64.30394917868213
65.0476828093953
66.89217959748032
68.30458804058165
68.59082770072763
69.18510738433079
66.92961827984288
67.26364166504874
68.71676989336046
69.76810002712219
71.35609431842146
70.05353060156104
68.10795116479059
67.85495329342494
68.46823841113505
69.26753807238426
67.3607226959477
65.29748260476296
62.609982422407676
63.617536568871174
63.87798383802203
64.87871205472113
64.3399684180608
67.31365887769742
69.5656080189985
66.31851245866983
65.44718874914376
61.81331341636587
62.256962670093515
62.406465141388495
62.66103431879373
63.41163414574809
65.0984389910167
65.77069829912168
66.08595574668803
65.2860426827975
64.5695005507472
67.0127436812305
68.37271513080545
68.05671341634823
68.09932572714533
66.8751362777181
69.14418930818242
69.16810265011111
68.82473570886093
68.5745469359325
68.47823632616974
69.23818067011307
67.51605617405943
67.16008197046418
66.13834043811636
66.38152044276877
66.48822641687913
66.72191585241713
66.52006410293413
66.38199420322574
66.77528754595556
67.46997968444083
67.63751381987454
67.18642675896815
64.4412480701487
64.43818501709896
65.74488189522295
67.46399150592227
66.54298148233174
65.4492258683811
66.69610577012728
67.67529318245059
69.65313332994927
69.00179442730101
68.63894759235754
70.02564737225167
69.24289183789685
69.86728642149492
69.64036496591032
70.91039167499973
72.73630699389592
73.15887467759646
73.32183857363701
72.7977808190066
72.29253507659851
71.42400311666228
69.3609721740387
69.49409109896982
68.88335159763966
69.78238048821157
69.56943063655879
68.65171485306178
68.08624614233042
68.93691257686436
69.48444896383053
67.53257180077253
70.08153701321403
72.64368052435489
74.1368145418475
73.4325210553858
68.28205029549379
65.84061503680039
65.31734791189595
68.17783171060964
68.03414153437728
67.88966842915899
65.9803295409407
66.60015720230636
65.06378336448581
64.67424444394257
65.60955874473878
64.46942034326415
66.5742511787924
68.05826034764672
67.60138563541221
65.77995334654737
63.007522810865765
64.13418054384375
67.5982625139294
67.8760412834018
67.03653967339474
64.34944162151696
65.79021078986071
64.47854321509732
60.89824901903468
60.63955095247661
61.450794372478924
67.76067857545044
68.18707824741679
67.2375131805716
66.05952603363352
60.92989296336989
62.33986344454225
64.11841617918898
66.493191365275
67.39243522425377
67.07255097162519
65.40792340583474
68.11439463387403
70.61114900679152
73.47470470781383
74.39720633806695
70.4326167653314
71.33532125669522
68.41083979091887
69.79305296408091
68.34642557861551
65.36616637727096
66.8804300475858
65.41376696044706
64.72935979418571
65.09212184064803
65.21919834164194
68.3078169497027
67.15347509266924
61.497624187682085
58.409139208512634
65.0543652209305
67.60985524961094
69.76776387285992
65.86128530501011
61.031468748077614
63.20908880314622
66.71635144353168
71.64530231348705
70.26599304369826
67.9336643145422
64.0935389647581
59.55663076888444
60.6212515404966
59.62212045734945
59.343547410618214
58.98203987942937
61.615165046640314
61.553382858947984
63.046779097598886
65.53456073257618
65.94275769122456
66.138062933897
64.33888729671772
62.419724163118694
62.181213639488305
63.27724491277037
62.16271866224229
64.41490387111779
64.68039468282709
65.76191941817079
66.39790395849023
66.01404758425042
68.69049314910293
71.49267556346511
71.77428195440865
71.01953704060516
71.84397247927836
74.83043242595014
75.80295822660167
75.546516615657
73.00619115506652
71.54915030559954
70.50083433210762
70.11899464588785
69.36555428152833
69.83483865721888
71.08354168790056
71.15114454230049
71.65950844133287
69.430620510052
67.60503466183906
67.77376743809549
69.29137990064257
67.10240825181066
66.11467130239834
65.74033491785187
65.20272737112656
66.64205271450541
67.564154684849
65.11949542924143
64.19905636175667
65.10209977622105
64.70414207736894
67.15466685633426
66.95895591526019
66.99315453252207
72.4513602194207
78.01299852559244
78.4183601021039
78.12255576097905
71.88673367456713
66.08097013314429
69.45578705787732
72.97301049916129
71.99680220879567
72.10428289318821
69.63778381600903
72.03004660239333
73.7394831180761
74.43134748565757
78.47587443003441
76.19445278487186
72.7365769261752
66.47846595314887
53.59507163785597
60.42554737766766
61.54677869687459
62.45538608983621
62.641509321127614
60.33982251312776
58.28443793445688
58.240695281996764
56.29030463102811
58.3508437510301
61.004812445913615
63.458101601945636
61.08867561650915
60.71400238436887
57.22288861219682
57.88661196927804
58.196607021392325
57.807407264843036
58.60913566216895
60.965560498666434
64.10179995936885
64.74599757867182
65.03660592206175
63.2193963102886
61.57726929725573
61.88124215891888
62.02837494745366
64.08652162941243
64.78281023870444
68.30787048412793
68.71253265893752
66.64026524219638
66.95890973889749
62.389030763623154
61.59156266806499
60.418687354385824
58.39289599145355
62.08779896230346
67.46480379931226
67.06186707918336
63.38555740904694
57.171583350941354
54.51503647225386
57.1884618119962
58.00261417468629
62.62639805951109
64.75215135246808
66.82511566096086
66.41218369294216
65.8910407065807
65.99203432466703
66.62344456092765
69.64973466516142
70.85595979686025
73.16426117326577
70.06537948526956
66.30541973704165
65.53972613300768
63.00248601820215
63.243845243842244
61.79590681620958
61.40505219593164
62.414671217292366
64.24120566963539
61.9948870602863
64.23928763942192
60.22587454190251
59.1958240113842
58.27909848668684
62.55133355653432
67.61130678634876
66.3759021815509
63.45932417494512
61.1005463118445
58.80720618302416
64.11063444965706
63.924115249339664
64.97331678148427
65.66491520335822
64.17280212023805
65.60826118140122
65.29589553809015
64.81914556881559
65.41994272798789
70.41056121708482
73.68908116629524
75.0078085731579
73.689509677284
71.44728403916255
70.43020275419433
71.96881909661678
72.18410995077255
73.10682249383393
74.63738671761297
71.7256558948057
70.13458009453677
67.44805488327184
67.35249558001047
69.71832491437786
73.76109310776508
73.05762662905835
73.36868061219292
74.15832045710664
74.53730231217077
75.91721533275333
77.1929585884211
76.31051865895934
76.10304705388249
75.03752647944395
73.67613888126935
74.2435540961779
74.7307535160795
75.04976612746142
72.92747709681557
69.48715816104333
64.28267656004704
60.65165672819984
56.48718669525921
53.96629001459564
54.36075298271023
57.076225103759874
59.592108649409454
59.840614646120294
63.484628967796205
60.04359782898569
56.728818541423855
52.11096749519728
51.184218773903304
54.15928917458069
55.27533838322247
54.6487685233879
52.58544552811164
53.30760922153331
52.844427446318264
53.83291552594834
52.74357274927214
51.8967293907225
51.166966444419245
52.93251426456903
53.40870535156284
54.28477848810979
52.47774818495704
49.808716750390644
49.43358622696425
49.62378972017868
51.913012483572224
53.2731569853241
53.74378124136351
56.41730474656679
54.755044661073924
52.164764173797714
52.125526404955394
53.84814460191334
54.850003156343384
54.321434439709336
53.899449216942024
55.23301228892657
54.6249770896495
55.57065225020548
54.61017075553103
55.6333272248586
58.11006585676356
57.56409185798369
58.787751672459315
54.45910289175573
55.73639735214176
59.97888920676501
62.44176608278665
62.88969464185054
60.03515745880504
57.36788993982979
55.985890897951954
56.15958407911254
60.01672223657977
63.79525303160426
60.7066701390243
59.15627868835187
53.44063148087324
53.730162113499325
62.16061041133234
61.086261639351356
61.10093015517675
61.89558727682374
58.155023171677136
58.016129506021976
58.68603498495424
62.14067074511119
68.48254000800463
69.42816846771714
68.73205696197958
71.97739866744351
78.26045338225074
82.44005803745969
84.05124120156623
85.32786198289091
87.87836615107508
91.03872429064039
91.78469397876721
88.11120038934098
83.74901969943933
76.69686212506063
73.21503344573156
74.30585065233277
71.86267414681859
74.21708741402455
75.63263069781061
75.5297513312643
76.13996600094907
75.67933298255258
75.45334210014565
74.45350246177856
73.70577827339581
71.74785755571207
72.4698952298587
74.18273278256214
75.55698658927834
74.48671577223047
73.39583648471333
71.76970933480656
71.04625787393383
73.47890235028223
75.54668279986154
77.87527548017624
79.93671713440067
80.78418466414786
82.2742972965325
83.03767100362707
84.93522892556592
85.82906461102388
85.5499367311904
85.90174130320396
86.2120523036921
86.14984476937155
86.6087228012775
87.44249474081289
87.93816613775878
88.48939741439227
88.42844623683632
89.5848562554732
91.00078569634411
90.90346623887358
91.83394359311971
92.08774994628106
94.20749506133711
97.00188011159308
95.49035029746565
92.03526409789977
88.55971143995022
86.14767909184874
86.63777409773003
88.27087253823215
88.82951383298905
89.13587726513471
89.53699240036048
89.2085173894522
89.6670103194387
89.14845484103576
88.34189906408184
86.98153664826535
85.4955460200051
85.83731219397806
87.04403445602883
87.0714368333354
87.3054020091668
87.0715981728997
86.67485312503669
87.44289780514238
87.32428653962549
86.77203117202487
86.24428200300972
86.655911318698
86.7489795838162
86.72804046264316
85.61354686058532
84.73811894624524
83.93966858067071
84.26953836558747
84.35417473229079
85.22699499247128
84.80843840162254
81.37712556523347
79.23183387395667
77.96114047795514
77.65618749711375
78.39218042633968
79.41735475924494
78.65702060195746
79.04122893407384
77.75014047934538
76.80583476944248
78.97452438740956
80.04781147056954
81.64552689436336
81.2224005438587
80.76152593229152
82.11267382813278
83.05317511007667
83.5385083151685
83.73248179655904
80.74869628745026
78.73764296829225
78.59044775020446
76.45843313052211
76.92461290067416
75.52938119639462
75.84337322261621
77.56034679023439
76.24196676758862
77.35756185727993
75.09155797060073
77.22143578691038
80.53666094771647
79.57398372744646
77.85698311437243
73.4793051242618
73.76225540284815
79.46809036090593
85.5773483348129
86.34131546944512
83.13785451244544
77.39152721484933
73.73847220477317
74.76990693700566
76.41100393860364
76.80047231865244
76.90775770028782
76.17724976516375
75.75990638384259
73.88002865416266
73.41909561296849
73.61841769247982
75.55099619712752
77.54536747260103
77.21348134340926
76.79147485392217
78.15316641055836
80.41485733750541
82.3615040073918
83.52037670106256
84.9867229194379
86.48563127566013
87.19948780405542
88.00969222499465
87.64628093938357
87.9509177044865
88.82204527562062
89.26681783479948
88.12628377054048
87.35149147563313
87.10794503155398
88.61345972666842
89.5416018902546
89.77870470982666
88.62463067824892
87.25549954004563
86.90201036843351
87.78433304682005
87.3966635368468
86.3582193958302
84.45475012756205
84.02705700226743
84.91123760270501
85.38002907183929
85.80639234519208
83.74166659288004
83.59189968180279
84.54270827932972
88.08118046365828
90.3561120554315
88.82738672760871
86.57211092335852
80.19817583318101
78.23110078599633
79.34189917499623
80.00073994633107
81.08184776123825
84.71681889434815
87.93900519730434
88.04966951714884
86.06304753489714
82.20546921342556
78.5745316655546
78.89895529629462
80.51656641753851
79.42531015963837
79.30111800628555
77.10081283787466
76.50718776950096
75.41879298627009
74.54349953035408
77.63362062074636
79.31343987645296
80.75181557406032
79.70740060799703
76.81310612318676
77.6006357106499
77.51480390853881
75.75034034004074
74.31278872469369
75.10214889963126
77.39524675927369
77.87362774570977
76.38014531816023
72.04557146830619
70.15435455300695
70.29049146705178
70.75694574336707
72.08231934412436
73.43432312691287
75.82279242036238
76.77639904671929
76.70040196469157
77.15299931390254
78.00047991848677
80.13107861798186
83.64309850233886
83.6954177427315
82.44591808578281
81.02292183041224
79.33565907576713
79.60699433544416
79.53308930715251
79.40208853228208
80.46022674658717
82.83536106214771
84.74817725135915
86.56473175133952
87.4272408384462
86.8590032458832
85.62888478422163
83.61038392913308
86.21610258872906
87.22650553781489
81.96806476204789
76.76161146933563
62.8931052416401
63.850391191590134
73.87907308075582
75.44026785652564
76.83244927788004
75.87685548438172
72.75097238591621
72.73771597751762
71.60535484835034
70.5149518013572
69.8288968297245
68.75353195847768
70.32531732942434
74.68041925186911
79.73325325312226
79.52232830837575
73.74111683647823
66.0772012907334
59.69706660075902
66.68826338498953
70.84155676027548
69.87282561691887
69.9899135484279
68.12824546397364
75.46020918544477
78.95031784639946
79.00790052679704
79.35833166739292
77.27335342623411
77.10708178505512
77.21287754179652
74.4884592417173
73.64368440732727
72.02988565571809
71.68262894457234
74.4020928423811
72.81291515225928
73.17616176515271
74.35150958449474
76.63369120678296
80.04841772568396
80.0649216860784
77.45037864722545
73.73284415944326
68.4543967770873
66.57275254367687
68.45408268699848
70.10012639369806
69.54093737204703
69.0118916854569
68.35861498231787
71.79358837104097
72.27062801463198
73.11750987309568
74.56890055081597
74.50374813207318
71.73104748080097
68.27461579320737
67.07263543743599
69.41630837035822
72.9377618967608
73.7410570356089
74.12100850307974
75.96223280650598
77.41184726985357
78.5032952528502
79.30153484443147
79.17583181837561
81.05676895508734
84.19779834011116
85.30405174755711
86.24927256882398
86.164456927772
86.13707061520228
84.75680114694401
79.97970139694462
74.59943603552117
73.76088101589949
76.98304849833688
79.18267755127516
78.35189710697779
76.42261113854924
71.72290328639488
71.32346846065508
68.41729360043198
68.73940387339925
70.3669197354103
74.82903123467436
79.35525418965187
77.18849909403156
73.3730779549189
69.03622863535685
64.40822144655547
67.43435441707821
65.01355211800445
63.78358022787032
66.38462800758558
71.32040150626912
72.94074632880026
72.44094338515907
68.98568044930116
68.4621710565067
70.9811042026763
73.07052178336004
72.62676199780674
72.8893342852478
73.45697040280258
75.56468297038758
74.2898639673598
74.82689070902482
71.72682345033559
69.14146593038667
67.86207245234725
66.12819252931554
69.66556938104226
68.22725436961537
67.76188599525254
66.93560807277838
68.64195035769629
68.6609299931878
68.16294364498404
67.91857837829079
71.13934030929404
72.50843332423645
69.9455979284921
67.15689320070727
67.23771794052524
68.83320959195287
70.28765765626477
72.0648481356478
72.35583075522274
70.8534302516525
68.67335214038793
66.54755618391187
68.0794063872531
71.24504194200979
70.37367542691501
69.24146179670215
67.87064180155754
69.32355777305443
72.85628705270503
72.11555514625476
73.20346722756403
74.52941907396273
75.83193912069117
73.2105016657967
71.19090779864703
64.83601975163769
65.18050011602823
65.51694383014765
70.25340525891872
73.59902331712803
72.76906015510187
69.83195753907339
64.07455251664061
66.88374498591493
68.89153469575601
69.04089970793811
69.05378055163158
69.06096164259063
72.65288752200006
73.70130651298078
70.48407834439503
69.08913272935003
69.19647476654552
71.9335288020971
73.00017470510505
72.24600038064017
73.27217921819171
72.28330413020961
71.28441709129996
68.55973940648306
69.26047123208981
71.25548714208186
71.90576225174422
71.75501992388104
66.32733231854108
64.16400338326878
64.02768896707732
62.8569363393363
63.89213238756339
63.73591178609389
62.24969878883438
62.03918728306202
61.93193762104432
64.40659039643086
65.84679663609944
66.50155278049448
67.59800835670971
69.003727893805
70.84224326753088
71.57895061579505
72.23427984652074
70.43335278165094
68.94127882061792
68.74097840971918
68.64134203274573
71.07507529207844
70.78629761755218
72.16409703618777
71.21824133152295
72.12151068247267
70.92779496250046
68.55579292834233
68.66081184905484
68.49528705891534
70.63751392373436
66.34620253336156
64.43256989833701
63.545943334131984
62.5537255074957
64.01184774045483
65.38951749856054
68.39110773252452
72.5488869520111
74.50851961118123
74.50234650495064
74.5373984311504
75.61506876319878
74.05319299898011
71.75729631831597
70.86033885598658
74.13803101726022
75.70669492925397
77.0963487246895
74.37393558990523
70.89058430245736
75.32589493275614
75.17716660079009
73.1699212495301
69.93251774542057
65.08447936119529
69.7489624140653
69.30510364737133
68.62528314382688
67.23724777962576
68.51741934905488
69.40552487600706
67.5575316105139
66.26838851175057
63.53815556324078
64.65146302225897
65.59672145727701
64.90163211157349
63.83585174860901
61.11743603792648
61.32267170012706
62.195495938514355
66.35114360527608
66.18071913234618
63.750089552702775
63.79756634343364
67.20067128073697
69.07337000860988
67.54200044337192
63.565850639929764
54.273892193589944
54.216322832682344
55.78632473131844
59.17329146129425
58.875538141677325
60.21435205960897
61.27452207083951
65.52087046373006
69.58870561954825
71.97254203706062
71.3203505015701
70.71528102882507
71.50195763541171
74.49367078560552
74.34422886303273
71.33206113784027
68.2394493219422
67.13498197106166
69.03140643828657
70.81268908856958
72.30324412785856
73.48936071153493
75.85716228015407
73.80117697712188
73.40940036327088
73.40549289841773
71.72585250090285
72.93129715569538
70.674908887776
69.62298609708688
69.99316213529316
71.18896151555249
73.31590837458027
73.76441128174388
76.24958230659011
75.74086295719405
75.81727540279608
74.43386028067376
69.08628551133799
65.05915276520153
63.649976296023326
61.84737486809308
69.04312518545905
69.37039206743795
69.66882203097558
64.85139819020085
61.0926829254443
62.794445265327816
69.28684808905093
68.29221093776094
64.35592792250809
61.00412171381652
63.08053212368659
62.393493271084466
61.02424038689771
59.779531393153704
59.59906629184359
64.93369400773935
68.04277203377796
71.27436142173691
69.7921023643068
68.87566406937732
67.35307316120117
69.1104344827756
67.72262170739009
65.12913211305435
64.1636640061133
66.4519374528457
71.07745642731179
71.87538822155528
71.76555276214279
67.94846068913355
66.49207735867768
67.52702344981859
69.93697247996143
71.68636725102702
66.17616830927751
64.72169558564893
65.01221929733742
68.04259680305307
71.79236920168826
73.0499810581608
69.06457649881904
66.86395540005672
65.42004955450616
65.40473842525752
66.52926334907512
66.09286431181408
63.27408780291408
65.4469850109944
64.64746391585456
63.106683261505836
61.82259249911273
67.73183984448545
74.04567402902825
70.9681635535291
70.21593083734518
67.18559128987442
67.6186112883764
70.16187408351958
69.55550698801645
67.88509255178928
69.56552625725149
69.33734997566609
69.91373504181392
70.71101742957842
70.77376892523306
72.24482719342613
72.03900080382247
72.57439561815814
71.03510314661196
71.09676651220616
69.94869762787692
69.197833253407
69.97534798042074
70.34512689610337
74.76303394048551
76.33225834804912
74.46377686542705
73.0251123979406
70.10598780270234
73.94402307009612
76.21370680130242
76.7929742514679
74.13083303420719
74.05924521414663
75.8289650853351
77.29127746478137
77.06869204023477
74.60902124885712
71.85107761217108
72.40166454604797
74.11890938470317
76.68121532521953
78.33933209388417
76.79002929303614
74.9736764975518
74.02487371780889
75.78448194000619
76.91517809102976
75.368552141724
71.05321870788103
66.911608585208
66.50267996768632
70.29422665191578
74.38335547530136
75.81611580727414
73.96622905502916
71.95654887745003
74.40571561021798
76.2730724313799
74.0740688433682
71.09646569507704
66.67975140543831
68.93119483882778
73.1596473383864
76.6269104116466
77.66063352318932
75.73913634861798
74.67910117125211
74.13555211336907
73.80260650750365
76.36067834572772
73.85639799670629
70.91326308696392
68.53305971570956
66.81956474817933
69.70067471156563
74.00312846283285
73.42119420362467
72.60273836288039
71.250677951831
72.14681860397357
75.23300829757028
76.57914908237453
74.0605917140446
72.68088937752364
70.81717654170528
70.58360815707397
71.0345692605313
70.13082819139487
69.7886253992026
68.8607285939909
71.94711424016799
72.25823688072684
71.65661643158458
69.8344780466386
66.94529846663445
68.49532835022787
73.08347059268186
72.19683527066843
66.90809279546069
61.58122593846542
61.07947710496052
65.56796329341014
71.4354475330341
72.46279414234978
73.05707451736782
72.18903486682987
70.15225992578988
71.70393586979675
74.40463638706734
74.44099417045555
75.03389497935471
74.72011555759407
73.942257419461
74.17924923606488
73.9399297354097
74.60008169200256
79.26967444728967
79.46613661367657
76.89867750038707
70.600455575642
61.850891193889154
60.705259376514064
66.67297538417911
72.99762299392664
69.95080133285451
67.3798719657063
66.36846440211318
69.82399556577631
70.1427505101998
70.90646685128726
72.01817860083385
72.87059545205237
73.853430617122
73.62723770533671
74.41059272535013
77.34581002269812
77.6223312942945
76.49469586633482
72.39537074015102
72.48247434155246
76.38340439945335
77.93716293597289
77.45923245158419
72.17565854021029
69.7178879233554
73.77401961419518
74.2028973341459
75.38209343924292
73.95312423035786
72.1057727070572
74.0863061520708
76.24276378413032
76.01963564190591
75.47358429974337
72.57737024287351
68.44116973362424
68.82577611091243
71.41945438180335
73.86470956889931
72.89700298413297
73.62801890503931
72.49010110161724
71.96694209715551
72.05376084440596
72.99639852482089
71.0356673716048
69.71410654168358
69.52518724837444
68.4205442003298
68.64059148350057
68.63657561604118
65.54059552080373
62.63105790172962
63.33539726938341
66.1701448869237
70.27129657710212
73.13403209194252
74.08602650068654
73.83361329984966
76.5873591634957
79.5234212821172
79.15522381448507
77.70695076563723
75.30260673608947
74.60969725568904
78.40175520522308
77.52691947142537
75.432774714837
73.75161849677518
70.91231148154932
70.95533115513271
70.55293739039669
71.99703787504376
74.16424424771738
73.38314696589558
71.4129587899949
71.44289135200174
73.77017184825685
75.81989017022525
76.3146215523506
77.41408107272801
78.30785499352184
81.07452495367471
81.46593560431324
81.11671080482748
80.21142126829895
77.44904553266066
78.9266480456858
81.25007722138841
79.73966988730098
76.15596803488188
71.30264551668319
71.03765035337011
73.6584394106473
74.3696061131892
72.00352589465334
68.77259466667522
70.93184534459374
72.93921813011806
75.81581127716346
77.35979736203686
79.06504813735711
80.68124283006678
78.94363616544024
77.51076023654267
74.92919996987686
72.9827800786717
70.35730077684042
71.5569319609102
74.16325652851485
74.79463777856719
75.39206806324876
73.64606415181761
70.95369963287796
69.06248199271332
70.403250823527
71.66516969347182
74.00078631629393
74.36529109256338
73.44805310646451
72.69784540170436
72.42222915648757
73.39160724145088
75.81419307719574
79.22236811111091
78.49077479376979
74.36789568269526
70.5646302802962
71.06887500387833
72.64273738015413
71.18097114138504
68.47491953941385
64.43856413138978
66.32326496766679
66.11017160823181
65.67596734618817
65.9912131130381
67.58779421723587
68.80987650489332
69.32435939156784
71.78850040788497
72.41942788077228
72.66258944951804
74.10887599960077
76.0979831255014
76.14756089262353
74.94627058815098
71.78537763429478
68.41556319031099
72.62564204544475
71.1821226541633
68.19630801751973
67.24766465231176
69.3346599724948
72.58459447501379
74.41532521140334
74.75743949073531
72.54316840751818
69.75205185912509
70.66635999913575
70.31746854240144
73.35992534643472
72.58600208370018
70.78567312521993
66.1941028868612
64.29843253399376
66.95965055705896
67.88182755146923
68.45030304139061
65.9400385573264
61.58178779506779
67.44691475762914
66.93072778236541
67.19139334447212
64.35074408173084
63.03085783424545
66.92112066431879
65.62212232800704
62.73965866251689
64.18028501176964
64.77067673377339
66.51516646077742
67.99017509233292
66.57028233788071
66.72754373504092
68.71395420785723
69.34766288828416
69.15865700777692
69.49069285234933
67.4565606237886
64.87063715572518
63.44276313427517
58.77774143210941
57.70033939495057
58.784744029564095
60.07807987823394
64.02893522659691
64.40677131229069
65.05481264836733
67.0566415690571
67.19644149825251
66.33813803847713
67.65999912856655
70.12183324715488
70.65823393937205
68.49359798577522
62.397033951472814
56.03530360762892
58.70769575484456
63.06882968730379
69.38037888797064
68.47779127469164
66.66506472063497
62.83126063310772
57.67307303297093
66.99755001802365
68.0206184659709
67.9499885734734
67.86173850666731
63.89826565759367
65.85296309151002
66.97369873906717
65.05840806471141
63.93809305536871
66.52597526634668
67.45991050046965
68.68855631096032
66.66057489487063
62.09509710093034
62.28752779754704
63.92620084169545
67.01247510338229
65.85566644819663
65.07978384766588
68.87947548577789
68.22556902981601
68.90062958934772
65.9306183844706
60.21317138780858
63.60356477820198
67.10519250109664
69.43573308451558
69.70429883178602
68.69442134529191
66.76250967655976
67.1494377631852
68.09116559294142
69.47200327895519
68.31019752529278
67.2928607149419
65.09301297244102
66.24172981575313
67.1097384098934
66.42462359697517
65.06125310166945
64.65390061190581
66.60222633386275
67.5822257486738
68.56747651612895
67.32823060103331
64.11557871812917
64.49930116739482
64.38718399385502
67.7300516296236
68.22237736100848
65.89245866178688
63.615609198395916
63.88312197532894
64.82378148424888
68.9007897184219
72.43868608556966
75.770808160512
77.849995019278
75.45844929371044
73.36144237242657
71.99517997122423
71.52833492996075
72.55787142912791
73.89689479842339
75.1803607959856
75.84212159867658
73.60047267813462
72.54976089413762
67.23517595454015
66.0802135402605
64.8206346473066
65.3320971615648
69.10960068076494
70.53655559926797
71.78935243158185
70.01905377205415
66.80017275491427
67.57546208612494
67.3225420161317
69.53044786646898
67.13678730885823
64.66946704777295
62.74967629846654
65.96367121013161
66.28046561445646
66.52210090617409
63.710189695917215
62.91340200015448
66.10106994974595
67.58141221495606
67.35231527397013
65.47476956288828
64.35151969802764
65.26000700530825
68.22568392578242
68.83508281950081
70.16768331742959
64.83824473508432
60.9283681419069
64.57985231154271
67.99448305371216
66.69463388733996
63.25836230171643
59.12980851571409
59.08513492591275
60.12181471444645
56.957029498155435
53.32509077417311
53.357792321720886
54.17457444506421
54.23867352148352
54.152331219425896
55.07883432010627
63.91300163969943
64.91978121740188
64.8459306293949
65.07555141971852
60.820434921330154
65.66021323551544
70.05742785301226
68.95078791064213
68.45543072360081
69.54379907256588
69.66251965173365
71.3957952412423
69.99941405554185
66.05854159978132
64.8236337603233
63.45337617266823
66.08096445826489
68.6138416983755
68.54389354680255
66.56967555710062
64.42068054754185
62.59833806957665
61.522424574971915
60.599760011183356
61.826984110208805
60.73123645860012
60.362150424887794
57.618918406446255
57.89133787579882
62.960609541935305
64.08422535662041
62.11537744159349
59.781268631319904
55.81725758710065
58.890238894358994
62.269806492443664
63.284278819436175
62.72740470336844
61.9356452106489
61.07623384895809
63.21785699740239
63.483120922449594
63.984170471079096
63.36005172142977
63.02660620311093
63.30715906564755
64.23765306529295
63.49224292039457
63.109478501259225
62.00368868149637
66.88234615955747
68.70043157057924
70.42405233589085
71.0030832074548
68.77589880691876
66.32032172260547
64.37955719690821
65.96358927825776
67.77669443632644
70.22038516566991
68.52258067111589
65.6888480554487
66.6118772020578
66.43084787288116
66.32142573920284
65.42430574823894
63.79552468812638
63.77244506253617
65.72010858405503
67.30959884655654
73.0730363338
77.45504943173793
74.47924547868413
70.34241029172088
62.72544666206701
64.62387828794536
66.30813943368284
69.0241868676438
66.79638388948538
68.2649535835583
67.96105932014342
66.52836604819609
65.0201608471732
61.414817893320695
61.91755752370984
63.29284072478303
64.5449675228031
63.433981267991435
62.8570219760213
62.20615216750875
61.99321588829005
64.82178268804722
66.11210769572328
68.45723936460006
69.23190723519791
67.0938800885531
68.59524654252553
66.58376725830428
66.10466556937018
65.97440733608755
66.54827051875608
68.65613185367235
68.12281591372934
67.43710327260797
66.77190872525114
66.37049983118914
67.07329138545246
67.72276916240625
68.44940465839068
68.55537068914307
66.81070329081146
62.442744186640994
66.134413377354
68.49179695560503
69.3629696515134
66.50237817545732
61.570469396241556
64.07752199422374
64.63747634359136
65.32032694151029
62.467898198631566
59.17017231018996
59.47069529558677
60.55251721124268
62.77302707718443
63.035559842617616
63.909876182859726
63.94569025338082
65.0052351922318
65.77242771887401
66.07882094363245
67.56196502674842
68.09072439713307
70.14096478722485
66.59817253132121
66.20548978692295
63.8277035669582
62.7915849765217
63.55095917070583
64.51563881776815
64.1127496081686
65.97756636439948
65.09237074854795
63.57300664573909
63.34785428700395
63.19099016641498
65.33390122586937
69.02310378039401
69.44576484845112
69.9667218828727
70.95998845226059
71.06803410521553
71.87939041355445
71.65638258664626
71.39515658991937
68.96758276671912
67.24468773813871
65.10957312891473
66.03953064885744
67.73160182291521
68.70338777790913
65.22336179307041
63.12589112096219
60.13057176472968
62.38471062585352
63.572759598362765
65.45083845284798
63.83340087991509
61.83623229689296
64.92171349899282
65.03258783098912
67.14920909606604
69.50333915228866
70.39181803596854
68.25710984949689
66.10899786106438
62.82102782373324
66.06066720688082
69.84057302282991
74.58519344751375
74.8640924728907
72.17807207042662
69.90138234147568
66.32044630180877
66.54490372479765
68.24913158922455
68.4593901691025
70.52588766483443
70.58227284745271
70.00204530729121
68.24096043330229
69.01258378997787
69.61764456987336
70.43594642711138
71.57218118670612
67.60628542871063
63.94469927755044
60.77304604672973
59.83729280794666
61.26171377544602
60.13321631164576
56.64795136138992
57.15286408952429
58.41251244470576
59.46241379130161
59.15020610829538
57.69051221912577
56.2668553358999
56.42908121509071
55.745457788533656
54.95849205093322
54.524394537485506
53.86799354875664
54.30672885678655
54.97450764348727
56.72791038586363
64.50529691784344
66.54424527061735
64.87261602792141
61.76545467092251
56.58490747505298
58.88495282297767
65.21520366546751
69.14551990422994
71.81757752961701
72.02023346326254
65.2471569520481
59.94927828930611
58.80727424651913
63.476003464207274
68.1219500337289
69.15081877489888
68.37855880755845
62.01454203759198
63.71970926030108
63.797465268364675
65.45957984626696
66.41159764515757
64.44858980737048
68.43020336561761
69.83201103140985
70.6645194227612
70.28271449948303
67.2997515219333
67.54848129149897
65.41040590444467
65.0968448058802
63.29744632859698
65.29753151374608
67.88379227706999
66.8770056880047
66.19078544286808
66.95593111711855
67.96597887242007
70.92040901472666
70.75833644261925
68.33575710956069
68.68101358580017
73.72830230867922
77.06579051980812
76.06296791800793
73.09118151316147
68.74917327731686
67.77773885796462
68.79054479717817
66.28009986916433
65.8923907300723
64.1104155353361
65.37813050094147
65.22842821819256
62.46537510817671
62.36742817951852
61.0427129631092
61.66782925887592
62.115380811738675
61.97803868210088
63.17264847545158
62.4725547803214
63.528964373483895
66.31176457952779
67.18002280355843
66.15739719321289
66.98948280254018
68.31119478142985
68.12904206906725
66.48418463281926
62.809349640729785
58.9344166132803
61.01080737803072
64.52492925568234
69.43250352745234
71.69527905081671
70.79683571219766
64.0474156278365
57.6390609908389
62.63562737466712
65.88087565542546
69.7577505377491
73.23522936298805
70.43791535229614
71.33120846103586
71.18304400488519
65.59439449503189
64.43012116078751
60.50996907798957
60.473696878050774
59.96124404815348
62.668758997863684
63.24870592021767
61.50326335713239
61.28459576034959
57.48348522311422
59.55179123356681
62.06449114694596
66.01213508841668
65.93818829582254
67.02638410402365
65.1513262349986
65.96245951631042
67.98880715499587
68.79710858096246
70.6503784391843
68.3649018525618
65.52612759940504
63.926681636926205
67.51867003099264
67.75879248014589
67.12254500459306
63.6153952040203
59.182374205588424
63.0963051462682
63.03421210329458
62.175742421566504
61.553275605069835
62.83708498779628
66.12897017182766
67.4374155192466
65.47559975370694
64.22638026008633
66.01190279438424
66.40309189227324
64.66893106357391
60.8300119683969
57.41672076031353
61.0697133304785
61.30360204777236
64.5984860532271
63.710818146697264
64.79665759088232
66.38559146956379
65.17184640304228
63.25259591041488
58.60200420994362
61.091244208343355
64.65150542619558
65.42807351942147
64.31917055060555
60.41092905494559
64.08125535866682
66.80142185212208
65.37972919188576
63.84791368754167
61.35375901596951
64.47715192254743
65.79326813470915
61.677479798249784
59.178232366717445
60.104627811612374
61.93602671479875
64.19843147358537
63.8573046244939
62.61323697883539
63.002483002217936
63.69339485074342
68.15274473530563
69.88449633330147
72.31169637663902
73.0535806018894
74.0586924712835
73.06199880309642
70.76382321064268
69.60105936230931
68.96439071311946
70.61921806166633
70.03695737474573
67.38821457738047
68.64121848599524
65.91838482913123
66.24002708230978
64.35889421739942
63.08478700957666
63.846474946306124
67.31334428597629
67.88913034393559
68.2866499957542
67.70000601810901
65.58275056235628
68.95421613860253
66.57798132085077
68.04842568914289
70.539639451333
73.31802301268809
74.86068693267038
74.8058426504098
71.92497395497134
72.76308690959904
75.22747031951288
74.04559908748304
72.72963949589217
70.45827717175926
69.36955184288377
69.03868291261725
67.32984056076361
65.69537537730145
62.92468962345758
66.49341877033477
68.33447217959505
66.30722087220505
64.55479104558913
59.39654519930402
57.334740888705696
59.33548671869145
63.41851870201993
66.64462135479495
64.37700997377978
66.99078173552923
66.75780774476029
72.18716594532839
77.01229565937285
75.92451536641613
73.71064290961553
67.3564639545456
62.68537822114985
61.22334991138857
60.8092374123612
58.56909883879698
57.076929217691834
56.35623484050797
57.753031919294756
59.631490722540796
63.98837453913585
60.47161455074456
59.3732273288756
56.877500367389544
60.21146136964952
68.7347646421202
77.62159327821786
84.40919716781355
87.92735674529476
87.93011002581181
84.22323563073267
77.29105295505948
74.7860547848269
73.01564115910891
73.90603743267609
76.74213993890531
76.70983780362187
79.11343139031374
79.21645102802535
79.85138180441865
83.24727874044498
85.57333421640853
85.75155142891214
83.4430018050173
78.71106126557885
76.30484311016562
77.32991344028228
81.3229750714356
82.41931151243905
82.6641095540547
81.18794250283378
82.28645353152731
85.41905536045051
87.78173530417179
87.32548041663989
84.23662199423407
80.22479976515741
75.58049312320821
77.37029796459211
78.96095573384339
79.62673991260013
81.04699623328918
82.93955683019081
80.16437799647636
78.52728864008874
75.71143838931461
76.4642540830316
77.48517983522169
77.7814584344917
77.04706890826381
77.83348408832654
81.3219616502069
82.44642062300763
84.56972487702689
85.1436322462855
85.82029825107786
85.9217178196546
84.77083376721927
84.6694209322371
85.44064794332967
86.26785197199158
87.2045301963563
86.33802742754366
83.31108728695156
82.79019150904536
83.36703372348082
84.90045394049793
87.09979274685729
87.47738079152532
87.11671554996445
86.60556053462071
86.58341032597497
87.5801169239307
88.82268151768088
88.26288231033783
88.00202408678233
88.9694068778472
91.04132601042238
91.9922978917339
91.56983218968888
89.15160273723701
88.22606276851057
88.840466430039
86.61955824867309
84.61362393299578
81.66166485153356
78.92412610098917
80.55176297572405
78.98634179764058
79.49816253366154
82.57962101458017
86.33274141035064
92.22349969500151
93.81589004484472
93.97874885937698
93.30769023825927
90.95021308775556
90.37081070748853
88.83279124659835
86.7794064048389
84.30218697787976
83.34761579594814
85.0943473802492
87.8014527121819
88.9464250339187
88.56642444885856
87.73826590209839
86.69073280846952
86.66617474161534
86.36191545326773
85.24650267789602
84.06153091764465
83.95962670339982
83.8276451495166
84.19004682493679
83.80310901711256
85.54628287233449
86.38465767435939
85.75564681774402
85.31912298144553
82.61450148793645
81.53506844083554
80.06077908188037
79.63120174391146
79.69245566193659
80.85867581648958
80.53487265520018
79.5855164595083
78.7861768525759
80.07208306393557
80.63576500343572
80.87350744816214
80.2132102373919
78.86570140194256
80.87630768554959
81.0013006702292
82.87832373987499
82.98965534316946
82.8543629344406
83.29062022115991
85.50616561544098
86.21642488971206
85.04084148896702
83.79489273805335
82.30172218258281
83.38780121364357
85.3211866217879
88.21897668435466
89.85230492041713
90.66679108661026
91.8437077444114
92.20547952076703
93.47522506200933
93.58468834890101
93.5124599338158
92.86051444771918
94.03879488227375
94.66585027691843
93.17518057998568
91.75360165110156
90.9707363249113
91.77288370636792
92.44147517488322
91.88500764381924
92.47660070492856
92.83631919412392
94.90263656380102
94.43172457791037
92.72969159898834
90.89478702041237
91.51942683639615
92.23521487847599
92.26280820690678
91.1716415306287
89.14193761895878
89.46048769398061
90.25013311898849
91.32415478331909
91.52191171150317
89.29856119201631
88.32199812477442
87.9603541423639
89.2132861927185
91.43420878753112
90.5270081516191
89.70250530418967
89.07207564795462
90.21954350977298
91.5310418584579
90.8314768077753
88.98485801484433
88.46884597385935
89.70895940836652
91.18986323062049
91.2353942035565
90.12998863568708
90.05338004334803
92.08805453944528
92.73051500866403
91.77458216355899
91.05319954479923
89.67480954427225
90.8309746426969
91.69658109256983
91.03700775281692
90.25263539304414
89.59578303252151
88.03038582062241
88.66332364564536
89.98473359582383
90.72322720730097
90.95341656369614
90.50799169888823
89.04454662883215
89.34626656949305
90.63180287581662
90.62205631020106
90.3868206849405
89.30475465049945
89.659213259771
88.31136923396085
87.13452722072374
86.7537974494811
84.67976547606887
86.4390884457972
87.38353329969367
86.34348732155102
87.32737153797878
86.37358846573446
85.75822403626314
84.51646218659317
84.42952664088249
83.82651346573115
84.14208406798866
84.2703134929395
83.31997600384108
83.63618262744365
84.67295035676125
86.03393875369598
86.57100967756395
87.0052444068589
87.15511226891135
86.78139947238073
88.38932198164689
89.34593907245143
88.059279693157
87.09365169748617
86.81239873688214
86.84441754927586
87.88002445153468
87.47019875265913
86.04629434796217
87.67662608397174
90.12531261855786
92.83101719825623
93.37489005763452
92.75564569462448
91.71219730121338
91.0970195663415
90.82477688784708
89.42914319104074
88.49477128376822
87.19641125766113
86.54804319902698
85.75670651840329
85.02893998226381
84.95091441091533
85.19986578566854
85.95954519713463
85.82078071189588
85.69903763797085
86.40038835216743
87.74475779172752
89.71142861968234
89.07034458809159
88.08615661510292
87.09620474634247
86.26578073537767
86.99887925248949
88.54711322123264
88.55309415310582
88.68002824861126
89.20115684195915
89.4174366756276
89.20813293550454
89.68974694092448
88.9355133872938
88.59989214632603
88.88823747623455
89.27823548081949
90.55557430275726
90.57785850594036
90.9021794278285
91.52637393684172
91.73436621387668
92.41272723015078
91.87608509225589
91.37217336743443
90.10785254299005
89.46145315748906
89.49002640525109
90.59750777064191
90.41553971889628
90.87975259889097
89.80623166277284
88.457437843661
89.98571192974697
91.52949523898165
94.03706640131023
94.50710134147506
93.67543156918636
92.17424828859173
90.7547241575859
91.54252441017094
91.12292085987836
89.62411857682308
88.86391724947917
87.98159679963531
87.92141101321225
89.00244239844483
89.66989840854842
89.15501665954406
89.56272544163666
90.00505335574103
91.07713438945298
92.49079165454219
93.21320508830999
92.24844966073191
91.87640682406
92.98069077760749
92.9713228518508
93.34804124626429
92.51438181174196
91.02094997546236
92.59875199661523
93.13774180039269
93.09687869464568
92.89697396273031
91.973717335129
91.65896015701509
93.04797536430213
91.77186256675178
92.67331462614654
93.1521989274252
91.7116567963662
92.09685016847355
90.51965956755663
91.13303804067309
91.00201758441995
89.70676568222933
88.84423377089527
87.57665871002578
88.33526466597783
91.64391942481184
94.31578025510716
96.71410209233774
98.75611849605565
99.44705432795247
99.83592104180296
100.31853596082826
101.06468641167983
102.35326239681238
103.99327447273123
106.11002776379816
106.5323493524446
107.26132876548034
108.06234941022323
110.22487225171758
112.10959637143387
114.36116160175838
114.55229831007658
112.84023067036112
113.42144556200729
113.29998968459351
114.22006199885593
115.38266295052586
116.19569422256602
115.06769886629148
113.63987726892431
111.03194648994973
108.33793427058029
107.32667944918101
105.99311499685258
104.53259392221068
103.40032543813078
98.47795725938137
96.31177041380651
93.24575636934087
89.56241857008142
89.12553388206722
88.640204124844
88.07965839466974
91.48262483658381
91.68051553565422
88.50001620733063
85.86808583630378
78.93546946157699
76.58863342343986
76.56880313993614
79.51803902398568
81.33927616941774
82.10239626551228
85.50388265749528
87.17781588704621
89.08285285567997
89.65934358985218
88.87958877433313
88.64801678949874
87.78891222725247
87.99274974441424
87.33359358398688
87.32295036587841
87.78299125885658
87.99925918936576
88.81441726877277
90.5147039837358
90.37909189286732
89.7020322103992
86.55386995177591
84.587371094452
85.10591833880605
86.38807114279984
85.03273955729779
83.80466221365175
81.40091566592987
83.96244708814844
84.81870562930777
84.39088580377545
81.67812026234219
78.30455200414977
76.25878254113645
75.04960124694136
74.55410078748123
73.15684407735125
70.94670551119503
68.38163072630473
66.5541354408827
65.94282241468522
66.94359055310395
66.91723959707711
66.24088302539187
65.6047739213893
66.20395222794014
66.89871635199924
69.83596385391509
74.88007716635465
77.2847207882632
76.998486075799
77.24034494671542
75.29499759364923
75.15530171158447
74.68028100862145
71.33596047922553
69.57696616453242
68.95321005117239
68.34328782382146
67.38696001940227
68.70485379952956
70.14830650746886
69.61478216175604
67.09650070665539
64.51093248307956
64.81821046626776
66.0123716837247
68.40701458635017
69.65227622848185
70.84789349908732
70.79096270704896
71.30391995217911
71.61411178140268
69.95952974093765
70.22226745911613
71.10864323591359
71.91327249336187
72.57125019218657
71.33088153755932
69.6047916505461
69.16804700201253
69.73006113911373
70.26055459377443
72.19421279209651
72.93756483979638
74.69806570684338
77.14328459840124
77.19131396196883
76.20413591839495
72.99982318923315
70.55783042434352
72.28506445264613
71.77666707895293
71.64736463260984
68.90005501657657
69.69372467436705
72.58831291253352
72.11515419898801
70.15209461983676
67.4101653176306
68.66578749193519
71.79911907777085
74.0067991708185
77.54793098026695
79.1771815373481
82.1021586280338
82.79601434916307
82.50410499048648
83.51037224060356
84.1285918765404
84.08705719407784
83.53243775349743
83.11598099841814
83.21732973920466
83.40105739472779
80.17797802932425
77.27843899744852
73.89349188653674
73.96596689901068
73.9734387943289
73.2446052785646
72.53580455540956
72.9208167813305
74.28762988595636
75.22253304716753
75.42802335074387
73.67444411222232
72.95367261730517
72.22681495266706
71.90621896931499
72.89075120342476
72.4695116377649
71.95063548510909
70.33999104385848
68.61250431766942
68.3834148189195
69.71669549653788
71.61317345764608
74.33937857752812
75.87290513617101
75.12757827675948
70.56265829639656
67.47777016457665
65.25591945986935
65.96149258556443
68.93329668575255
69.35248186599286
69.39734564152496
69.07514835870303
69.2901738085387
72.18764216770975
74.2804931643798
74.9736677827579
73.71316482096016
72.31427570926755
74.28895626683847
75.43245269032418
76.80681259153258
76.08402718518398
74.90871006904662
74.8956100771071
78.02834237014741
78.88544986694836
78.68338114473516
76.46039799366685
71.67957850445069
70.73256369733161
71.19449496657555
72.65388023363442
72.4784893813949
71.35940784814755
69.8076623903569
69.12369191293868
71.643145969444
72.4638918235042
74.83219175219631
74.09960623186281
70.16505145377545
67.87248178293522
67.0552064382747
70.85930723637327
73.31256420115521
73.76677899127543
70.89039926967956
71.40343223692255
71.4314285029489
70.97593619333605
70.40206667353601
68.61937549674543
69.24472990327254
71.42456047839639
72.62048021500408
71.58270510520497
70.41070114733698
67.874640619931
68.75802761069733
72.96374010928238
73.34139046325956
74.9016042838025
75.32175099072691
75.0935602905278
76.38516061153295
77.49580448620594
76.42576482636244
75.91311429423514
73.84907684114266
71.27988936266294
70.40750040168075
69.94857432944826
70.40759571559316
69.36645488123304
69.48711541144989
70.22386328689493
70.70736526223274
71.53569660369928
70.71796264596271
69.74634187360752
67.75495936929147
67.49116279715406
72.8947253834265
74.38193879784124
73.2611677338483
70.50313191469718
66.66740961755963
69.30991707359837
70.85557019788695
70.171918639615
68.17247233197892
67.14053999095464
68.36640212069275
70.022050170488
70.28512482192814
68.39627610196555
67.83120183943024
66.04781953427553
66.66767588555479
67.56142902792098
67.70806432445744
67.78433430944041
67.9727704728082
68.49884603847212
68.53798348097484
70.70967566442846
71.3528635688821
71.49742206966381
72.89874173665241
74.19316705962191
74.37358905413033
74.28224259214399
74.33672293357682
74.74664201384279
76.63124030779
78.37513158741497
77.29816598031478
79.09477607736444
80.36171401975058
80.2143088648985
78.44708341320525
75.14068623455177
71.793650471139
69.39773079912374
67.0506673264167
67.01783890546307
67.06318108915401
67.6707558318995
68.51827804783335
70.87027000446136
73.07848581092726
72.7882245752842
72.05716171238093
70.74590214208386
71.7950229453775
74.5829869133161
76.27232014622432
75.51201494043693
73.02990389929353
70.36869679658494
68.95883066738787
69.759583006657
70.66758525271382
72.09344707674019
71.85299358459021
75.06382997043927
73.30012974490243
72.42691124344094
72.26745088842448
72.34199149634247
75.96432657206658
75.93362854869078
73.35334613598735
71.94922685025678
71.28047142653493
73.11346383923748
75.24352975990257
74.74505647525542
72.44177387401474
69.24347654099864
68.0852095671784
70.94828720816577
76.32401920704687
77.65259349337856
77.26498116895661
75.76828606761035
73.17483437294159
75.92982640405084
77.21490613590194
75.9471640379087
74.181498752199
70.46622726239238
72.6761651844848
73.61710177689082
73.75863048156957
70.62692478826594
66.54963389287036
66.33639153358182
67.8049521177636
68.56708526280164
68.44762937569361
67.15940908361728
67.78458394810676
70.10546316591092
71.83403425153847
72.46837021246591
71.92318836355476
69.84178954544329
67.30624100593933
64.6075017462781
64.77508408195342
65.09670532228483
65.29298084285958
65.26198394582019
64.62249871097983
64.93626464001848
63.968535867436195
65.34729672793465
66.77916083223579
69.15549336548418
68.27427379289938
65.80024332578928
65.50188232656014
66.63571463238176
69.38354459426483
68.77096622807744
67.56770698917481
67.39726535596522
67.3562003102843
69.56811295357153
70.07556603680918
71.18274198794542
71.412266399308
71.9437715731149
70.97919704890604
70.55165874860921
69.46516640800183
67.36710180970749
67.59288641119767
67.94875904215068
68.35005568854677
67.22591596851326
65.17533561365723
64.70195959265065
65.7835746839985
69.41962833093832
72.91460867699573
74.91994468908534
74.95317758592468
73.06441539183052
69.10149702612154
63.838430931262806
63.26127835457261
64.55420632336015
66.70812948507806
66.5471178995864
66.77706904557634
64.92190653167114
66.50280119047113
67.18449303446306
68.85415469726252
68.88702697277299
66.48695775141385
65.28533500035928
63.52854338365749
62.117306125011886
62.10407867010647
62.77712136254769
63.47093825401679
64.37620786370698
64.97159213760511
66.35352829623383
66.3667456705077
66.0021964454252
65.14916253141017
64.67306441830672
65.00645392716169
66.09935652808791
65.56011405620649
66.22125990189453
68.53282538665789
69.75977439371376
71.48852203072089
73.15520311754617
75.11094322073731
76.1786984280458
78.0199590693183
78.08493902967497
76.54961171672639
75.24038061882541
72.82807328308375
70.31040420495498
71.05824849765271
69.70793082426809
68.78454269027944
67.349930130628
66.08694564922149
65.86878921963657
67.4678089334838
68.4490020643309
68.11032977709066
69.69966130785637
69.70112378540666
71.4830357833399
73.90586826690958
76.57589580181963
77.51441830741508
80.74612552906169
82.38550938375246
85.53151650419737
84.10661370575252
80.99021354654515
77.2907256536117
74.50076447382185
76.24960216959064
77.82382132471864
79.12244795207079
80.3971786900435
80.19955827339163
77.05142429904286
72.85919888189308
69.18177348007299
71.90213064149701
72.32387744005538
72.3266911847498
71.05688757631256
68.17922704965699
66.5191572257682
65.17612335238624
64.19628358702683
65.73745652395259
67.65566923004651
71.64652169984164
71.14369081666216
72.54720567840245
72.50530316820537
71.77898931192017
72.91271022694019
72.35047238749725
71.73763395898571
72.0411275396965
71.33430205662688
70.61738066551769
68.89638903417668
68.49503556635561
67.04447593657585
65.83696776570537
64.12745807135892
59.06417738857984
59.62176946693073
60.022999820751465
62.85343848847515
64.07476578709108
64.62268364936328
63.58297244226766
62.55549847636924
65.70808685091188
68.21094080350412
66.63132375724206
66.03199706421849
66.85374846508147
71.852094465423
73.70461617380363
73.90562330639983
69.6620806734474
67.59321971177806
67.8374280154399
69.81880715273803
72.33929585933325
70.50097964032173
67.82418742564094
62.34381622435615
60.421811956588385
63.459297718845086
69.25366461055653
69.37919584120873
69.06208954690601
63.680372322346955
58.96839422603664
63.17067377651425
65.0452080991652
66.25012690829064
65.36949123297516
66.98304779011657
69.53243753349273
73.39613871213082
73.11351300270917
74.69209049741626
73.60877117513103
72.60007960142258
72.27248645610145
71.48233117815454
73.62479243369208
76.69438579322119
79.47807286033579
78.01733137676969
75.72644596455706
71.07647426189564
71.9758492695433
74.55520522817733
74.10738313329199
72.39111160080783
70.83021987538717
70.556772350512
72.53048685207489
72.40795547555189
69.77615750940205
68.97362516627143
69.04412536168206
70.87163648520169
72.85010583053219
75.17510935267285
75.84113354057814
76.83044845101975
76.07766216079244
72.24441624757903
70.47685073837019
67.64676446328104
67.57525497588372
67.19511765777459
68.58507956878682
67.87417182227576
69.47412134956014
68.66522672586434
67.75564707281958
66.6545180214302
63.07740019941794
64.70704589844681
65.44145446712062
64.7928620007784
64.21133791325101
63.97943206378167
65.60509483160521
67.92271421470352
68.79203030887797
67.38557640905441
66.76957609196714
69.73780192540511
72.24845220066274
74.04766407037495
73.96474914572666
72.56702545460126
71.5470708871631
71.32179264769891
70.18097198782513
68.55887737367327
69.74737476117974
72.90307577317077
76.9886556900992
78.08576231096086
76.42545280831544
73.19780605868863
70.23518640419498
70.4620982718962
69.5227473768727
70.35381582066191
70.91175021538155
71.38571086949868
73.24662299871599
72.57351067263488
71.97059187516837
70.51216755649509
69.43950682415102
70.76218983497239
71.4618891674113
70.7550024626791
69.79062132270904
69.24899300290173
71.9607245198861
73.06930856725677
70.16401963908481
68.51686896395552
68.43913990306064
72.51395716323043
73.76145983252658
73.58438585621246
71.87319117847677
76.64957061860332
77.9218113218613
75.95851607981018
71.63884088210632
66.41655584519708
68.74809078697548
75.27233036391526
78.21512826922415
77.34716669408297
73.91652557415816
70.21285489696405
71.59921649556091
77.18447551548813
80.75021805300696
79.31506636032141
73.97775780772062
65.04892801405356
64.16619273482779
68.69652156199314
69.50710793111871
69.43358955431593
66.60631913400118
65.07327284004349
65.60845669090254
64.66161118768215
63.04014622545373
61.10839190566954
61.4632991046239
62.58078790424368
64.109509009348
65.47526832924444
66.02811232171305
71.40352485174029
78.12866148622906
83.2746109039545
87.14983710389232
89.69449387745823
92.26048560899821
95.74228763176251
95.61329847723682
94.20722412874875
90.50955355964963
86.16405059340094
86.74190768892633
87.49894560210011
89.29585018394032
89.83829108181952
88.9673203180014
87.62326145832661
85.53623988936243
84.81215141786804
87.18766652806094
89.12320809295566
89.89989804993853
87.28662026503257
82.62556011997374
82.22623290848381
83.97718727214269
87.02041324898269
84.80544895166635
80.52482596371493
77.36136909852819
76.0807589657529
76.48573092680496
75.92017496520121
74.57699631894613
72.83316426717553
70.5920212053159
69.12766265144312
66.59501904938332
66.49131675644506
65.16263373809494
60.955427747181986
60.87079330375372
59.230368612973926
58.0450682714653
56.5979135017495
55.03997168432497
54.65491062818689
55.971492082497264
55.132654595551095
55.273600598650965
54.21819323988074
55.19232661342813
54.702656180583595
55.86041186455092
57.85106630416333
58.65553591444911
59.11290494420198
58.86944300659882
58.821623271538385
61.82884409562236
64.06079045239007
64.62682082889064
64.13839773896731
63.20641181289191
62.245448868675666
62.69401948883384
62.413462981352325
61.38754467305881
61.013622970489386
60.659641832215776
61.292018795618915
63.553232624823195
65.04969473263778
66.70178427138224
65.44410569387713
63.18488965530482
62.18725200574016
63.79300817485461
62.772163800853505
63.83968984332897
62.52391724999681
62.661226584528514
62.005781143807
62.06998777194359
60.89081918704125
61.443864534522
62.25006290930831
65.36378010625995
66.05877741302612
65.52627062131587
64.29366650392096
59.239826786215694
60.41841612483101
58.26361593821708
60.13779660373298
60.49512292242117
61.03769363232067
61.63068008350324
60.3734253719676
61.408674728037155
62.0250909353173
62.217044296956395
63.73488596056365
64.05980742456404
67.55924240592572
74.0586294883782
80.44200565936879
84.00499099751627
85.79625673361757
87.41139880295101
