64.28235587205951
63.349710123072235
64.5684765376869
64.67170918502705
65.3100462887823
65.42855515482145
63.6842766958137
62.9999442992343
63.2319898556806
65.45735141561951
65.83185046390695
66.37878762821754
65.81761372515979
65.39491191230432
66.12560588319539
66.24289626507857
67.16153731531817
68.09591707075484
68.1447235645515
69.75270819371838
69.6331189123176
69.33714641202631
69.05819299561844
68.45174245726766
68.17298063723707
68.62503112163651
68.27983441828046
67.03332470404084
66.65763256240965
66.58198028486206
66.08734955275757
66.25410543675012
65.20763685033651
63.966777373405726
64.75238584388907
63.852949125260544
63.9815764148263
63.306013203251275
63.412837883506334
63.68970614236613
64.26504317990812
63.11965172890796
62.382424693798235
61.713319201304316
63.68713934404964
65.88244503596616
66.72928136288476
66.12686085485959
64.095469215547
63.30256065394172
64.82910335699077
65.33663987362172
65.51087606217057
65.16225089997772
63.78874777802264
62.256293896573816
60.37912969258915
60.36462505694734
62.506011431079116
64.19552123942783
65.32440226769225
64.91604141125802
63.14931626657295
62.10575886320767
61.80655680565657
63.04955164863749
64.3746611698548
65.0060881812694
64.47734740703811
63.89044024804882
62.4453143933176
62.01046386522546
63.064615964280314
65.01493419165914
66.86398111817265
68.14334151706313
67.38416588176005
66.5001718178247
65.49070087242453
66.00641946699302
67.55445946247238
68.53317763418208
67.689407725496
66.24728636390662
65.04593367150066
65.15115617608595
65.68436307124726
66.35794058592327
67.09717511134637
67.10993615719755
67.33062581236996
67.55145424754281
67.21115763773128
67.61172705265125
66.6868609536699
65.42457198440381
64.42084984826211
63.31984066629575
63.58692110444503
64.09347429212849
64.25280204817608
64.27749684116812
64.16129646740126
64.01588284921976
64.57966946463992
65.17566061580851
66.04417570561233
66.63039796084657
67.47538829364831
69.17030910715668
70.38069941302841
69.55906193150773
67.85849823477783
64.0957040889955
63.201612585407496
63.68512652493152
64.67327372778466
65.08994825387566
65.37229828218044
63.85112647677154
62.98498295234554
62.84100165666008
63.27404870348588
64.6513902861303
65.19971345970225
65.83703748017072
65.66657183714409
64.22917583218086
63.835444745020446
64.49355053334135
66.1894410202715
67.53299063118143
68.86560155409944
69.28592766539307
69.2443051798574
68.03434045269859
66.78234250715731
66.23896048827886
66.43240155565388
67.63756050111665
68.29469372950675
68.40847014011503
68.28578677097916
68.63954848486793
69.34455330361006
69.32926457359275
68.98747568983838
70.04863382049811
71.70140528709936
73.38694768738713
73.7919660703528
72.70114296977731
71.6029264825475
70.74901446578589
71.21752486832875
72.26921262503419
73.29497124079731
73.55635828228907
73.83844432564821
73.56235650465413
73.05248687391978
73.05109466439974
73.24808651075429
74.58775959492712
75.14906401020538
75.39618270746217
74.2222269587632
72.95029835245465
72.56051322135892
72.78344743291531
72.76544961602096
72.38834640859528
71.1923445406998
70.56681728855763
71.0340751650541
71.34720779094255
72.83531521125065
73.77472514988315
73.5830615553968
72.8775505210553
72.5644285514589
73.31307676074579
74.35759214495043
76.46567477375669
75.02850615268002
74.78039430192088
73.59972367651496
72.42527383761463
70.78918911237783
69.68084062812099
69.85552790966895
70.84192541508705
71.47012604253047
73.6826839276054
74.08446088994458
74.06667968191374
72.58600012117826
70.69910597698255
70.44403105905077
70.13205700385814
70.57464334816568
69.6792808239977
70.1119178565729
71.13253551204889
71.63949162938121
71.19123977040265
70.32356597507109
69.24767672361764
68.16108544222419
68.65770592486035
69.12446562520724
69.96755363612243
70.91208083829264
70.56472562855372
71.26096304967585
70.1421619116991
70.19752750042693
71.1652240353762
72.34280227395497
74.37381411144464
74.61282896437771
74.38517889646667
73.5166175570725
71.85272302326558
70.92992415695578
70.50563340459524
70.57027225681584
70.94205513210402
69.87187403694978
68.46812879159131
65.71494602536592
63.638131390348974
64.67721793533826
66.2079086307028
66.03460553054376
64.90401936044474
62.643748135678656
62.22455600888889
63.579492401711
63.711815107714244
63.11369833238314
62.19519641830406
62.172467034583306
64.0738775544201
66.3109992341188
69.01173026262018
70.13525669126201
71.16488636037339
70.82710006637163
70.67653217880334
68.71202155828709
67.75499672514617
65.7262753173022
64.88915149163584
64.93323793209545
63.72931498652535
62.79701412485381
62.79725835153601
63.5426439817644
64.44531271745313
64.46336009147096
61.98977555315298
60.850453218982736
59.579780726381465
60.01383105699386
59.89539143023507
59.595455437256426
60.54299358565636
62.037303869698306
62.579653686006154
62.91936448452063
62.96353419945943
62.87639729147357
62.95416271982611
63.72991953006567
65.13766917334848
65.8833105328996
67.57207313637275
67.95027220836883
66.72148112877206
65.51345014826354
63.33240789583254
61.15146555339875
60.19796210624792
59.21516190684243
58.91448019217347
59.178295477638414
59.77750227137992
60.911761583614904
62.371366206588014
62.73569492395438
63.42184735386172
63.2141233919461
62.60371811805055
61.97883251347559
62.234773503513956
62.93316337800057
63.214124677230075
62.71654731003874
62.00300275264093
62.072646080625375
63.12019851823296
63.21801854492222
63.822123080786966
64.5065258710296
65.70790146528958
66.10275005069252
66.07502204481152
64.72919226592786
63.79987711619499
62.802944983923986
61.0040989203552
60.47239853641717
59.70931853372708
59.377318209466
59.44800689300418
58.61940673651474
58.62724400528493
59.753498558666124
60.58618177457784
62.070592975211206
62.234201422441195
61.17326724576204
60.77062639547931
59.73694666830348
60.09000338980923
60.79399969406011
61.30080150787713
62.40850570057176
64.8456206993413
66.33538313866154
67.51736122721621
66.87018886595571
64.6092082914151
62.33763226446901
60.450647563534474
60.56140778729264
59.91083008244686
60.78852265729032
59.72988335772855
58.476812399477815
57.971489416869154
57.71167108321954
58.37935257981285
58.347541800309195
57.92851034320825
59.042001638003555
59.102695612860096
60.016842134861555
61.16771964506474
61.4355868765549
63.483325602874324
64.02584460727468
64.57818624208281
65.53309545648992
66.11046003286958
66.37052859448382
68.52151241915406
69.43885199931324
69.93713710739719
69.71989334265074
67.4174431389109
64.65907344358918
61.25106526218234
59.46749021458701
57.91535881967666
58.2856290495286
58.57410396155582
59.99569150160751
60.62136292868068
61.37071705990707
61.0596068403537
60.12325406874099
59.00074629262413
57.75332778242738
57.5067588821463
57.388988349307894
57.795785949274155
59.27272455778488
59.94804422040539
59.81068289549894
59.21025837446206
58.79373979282767
59.89414829552097
62.5916357550539
63.00067439148205
62.919936585407854
62.429740506976486
60.981493662602915
60.771286040066705
61.559522022299575
60.654765671421096
60.309919997115955
59.80248556371327
58.839588590926304
59.30500141763428
59.70093725273865
59.884749542035074
61.63322353666122
63.62296064408038
64.7183768227667
65.5040397904931
63.96267086616804
60.993546271258644
58.664768990826964
58.40747053480372
58.839937606537866
59.640563714445264
59.32333586895144
58.90211254288378
58.946380491723474
58.41662753951305
59.40115388180516
60.78136490892478
60.970124989771186
61.16965687314503
60.521207567526766
59.42747285101567
58.91280551268983
58.53778174741104
57.8864284262228
57.10614672241752
56.61346475625083
56.49187903850533
56.913544000440446
56.35416665346087
57.36146570725065
57.6991405628303
57.932953384819804
57.63949181732857
57.46912943110406
57.81365879774696
58.47054055075716
58.79698149070811
59.36640115861581
60.249939768415416
60.88842888331789
62.40137262202601
62.70976472790835
61.971935696042785
62.48258326950648
63.04832180809748
62.595161688847796
62.37996090156812
62.1918568173495
60.73663393904622
60.262423782350005
60.58184121449195
60.17485427970403
60.432574316101224
60.521149606269695
60.88012908441978
62.961266080690486
64.40148940092533
63.74620022396701
62.65128542098512
59.9279842512399
58.1843927581283
57.191067024164454
57.2929412284382
57.21240481104004
58.145654989091724
58.286270250681646
59.520768048425325
59.771287250265246
60.05762562023336
60.355351603559996
58.904798830938425
58.746599816318415
59.44250206301119
59.75908903709472
60.2030708285719
61.11306847994188
60.7250343265566
61.72241337478721
62.17457242562347
62.29053492248774
62.809072372953885
61.6414448960537
60.451205030172545
59.33401150080239
58.30573194222132
57.87631907329908
57.947740685662616
60.359250024748114
64.25673061204733
65.75002135810189
65.65153832391931
64.07583708617454
61.367993543612826
61.017432317095384
60.788653776341455
60.39089875492533
59.90811926663645
59.97931807400398
60.42413580774797
60.57586807509227
61.36962439126886
61.568958212132735
62.49711149890085
63.08375236337745
62.17576957773601
61.19750608197039
59.824170176393054
59.071856526224316
60.04971631139551
59.915052568492605
60.36449252600404
60.88962708300151
62.44574846893937
63.54373894335665
65.44291841835039
66.08347242289622
63.78181907361114
61.47351235265906
59.765038211519844
58.586828773335064
59.21720522869233
59.46325446168647
59.361938745422755
59.45064452513446
60.43555600305973
62.04669839555431
64.04311894385226
63.86804904522996
63.2152564015203
61.72804404079034
59.92661266005887
59.92803938842563
60.621731403946946
61.6780130012652
61.9308393175922
61.02346865230474
60.32005006980129
60.52671418789522
60.410728309479815
61.10277976488751
61.758961967353734
62.52779575899956
63.03744561556349
63.31889387612487
63.95254493443393
65.21438938513288
64.6943975576925
63.684461202717145
63.29500746350834
62.53038993391803
63.52594960751709
65.90099049660924
67.32755019903743
66.75281937998598
65.5072940334587
63.59018646989791
61.506939412687665
61.259263356965484
61.960527022815754
63.76715432066578
67.3097672720121
69.69179092685101
70.86862693673649
71.8942829933796
71.29146399316161
70.5110892545627
70.37715256308495
69.96675931655531
69.52271476648602
68.20184461996357
67.79311978774882
68.29229461662607
71.11699086760986
72.0737550478766
72.885655105199
73.52982413373518
72.76622101392111
70.46166160712183
66.51607640557415
65.07214561793131
65.05117810032728
66.53860198700801
69.0349489219717
64.548504554012
62.604454359867034
65.00545396207956
72.76545892293984
73.67012834826289
74.81256126139992
77.50814439525679
75.27229520077657
76.2081358241474
74.31508494661762
77.05046071968098
77.45195574695947
78.38854462444141
80.24419385210926
80.58329255150626
79.68362590014794
77.31680119748864
74.09588407893565
70.13406729892145
68.87216606534572
74.63470242093679
82.21651844973456
85.20963796852276
85.49195855210331
88.17313445976686
85.98664240931366
79.77089123763305
79.09934893222517
77.82038161591237
78.06102713971423
75.52249187610362
75.74159394792792
75.26321852063238
76.85359576336903
82.86731915493303
82.37134747488798
81.87067894269781
81.80328730910882
82.54467308288791
83.99281143887104
86.24665219215005
87.63124568241943
89.79505147215454
90.39850184219245
90.64547066978253
91.3189647392277
92.02388296378349
93.26439247366096
94.33715166320707
95.78780469449798
96.66061002460343
98.07391238343807
99.02867859150649
99.93499769198728
100.11159491493787
100.00974075096094
99.91805747844452
100.12708416033449
100.92305821741269
101.90691907340388
102.64010304891065
103.57621451433958
104.12013911238363
105.04273169523745
106.27625858048029
107.0590840733781
108.05994060389573
108.72485440682556
109.46220768259062
110.34191554643623
111.07148288259584
111.9012659451095
113.02945105629091
113.38637845050452
114.39920237946501
115.26196094348417
115.90824236404121
116.28869150582221
116.97891925090723
117.42789135658707
118.28062771829413
119.3598940676808
120.20556885454627
121.3182466508963
121.7781876240204
124.42067820135219
118.95560550515542
119.63446396131395
120.34455189912265
114.70403810836831
120.72069624959407
122.23490885170494
121.34933099539337
127.09925295328642
127.12099190608569
126.85730487448566
126.79887530688998
127.0872985488626
127.34981426630546
127.68995429039126
128.00561199367093
130.21084083455048
128.2613030608053
127.61724301365564
127.15527825755825
125.06039129153766
128.51143042904917
128.4202569962876
127.18385859511564
126.23185945936301
125.31875204928353
123.00192538735413
122.42867270030732
116.35798661417182
114.67728549167734
113.48628696333301
117.26928969006586
117.52317310963015
117.89063512041277
116.92430107116357
115.71787472336548
114.76205829044865
112.47344739376186
111.36597766009831
110.62245804771432
109.09932823395343
109.77663360437951
105.78551764557521
104.74879750562789
103.45372203081482
103.30727553156022
102.35355715864394
105.94867118529926
106.17396297115276
106.15060421041532
105.19039486601008
100.55237200640165
99.58416203574842
99.0841207051461
98.69765962225183
98.63308212930663
98.63468717724803
98.33226200433995
99.23080001255256
98.62512931830537
97.93098024614454
99.63700172891923
95.54208281419822
91.8083225100659
93.83415539146229
94.05305258584231
97.83843952201273
99.22245522162599
99.55588586613402
97.95286550587606
94.39378394479984
96.21003738359245
97.43791410594734
100.7143183570704
101.85133388043305
102.8453722009095
107.07722079048183
108.5082455812689
108.35124575962483
110.162540731916
111.25839547800457
112.68727337120585
116.107525423959
115.91622611669193
116.47897595333957
117.46061422295323
117.06571749639973
117.94255120677099
118.23681719689304
118.87834852833632
120.05461971451902
119.58184092602008
121.8309165599174
122.6479867823196
123.18733019307425
125.194607026779
122.38441542787682
124.47677669236086
125.23358692347807
125.39015615038898
118.75857512465727
113.15849303053938
106.83386220567415
106.22458435609592
117.12436011497093
119.62819362940756
117.85641357508258
117.2087998809807
117.41101724488517
117.70566057679473
127.61809175499162
129.49763518752033
134.61861969590547
135.44091863906408
135.83980530849425
135.29564327958983
136.08096650529114
136.47560773923507
136.9655158967951
137.24533511826203
137.99668310066613
131.97645012515642
130.64262068788787
129.86290106826897
127.38435925100887
121.6795337090868
120.13132679415055
117.88564922675123
120.79091365196936
126.66141843794931
126.34440493308087
119.3151169379285
122.85125191585942
120.86925920385362
124.1077247872643
116.82309469035086
116.18498124011694
118.69985240694476
117.9073313131593
121.33307103377959
122.71273463431447
117.12455358422072
119.7870224275903
117.41778826723207
118.63760581009966
116.93270769509824
117.19255116819026
116.43725308267477
118.92176031165849
112.62184025790344
112.15068948080199
111.20527586433981
111.43453194979564
112.39405697192066
111.65049199887507
110.97683944731327
109.62471902040141
106.82062660856229
98.74761298814738
99.89984118068101
99.4762681774263
108.71924078805759
111.38945627008884
112.42240392814338
112.98617492987749
107.83665831598894
104.26519998128937
106.58498232879255
106.80242074153409
107.90822471992671
107.56237228966967
112.76540491259722
112.1020016278776
113.8570391046078
113.90546499269541
112.61459489310215
108.38078313357177
108.6714784419687
107.96951954429764
105.28157679180728
106.34614445287978
103.99372499247465
104.28817890505051
96.94570324767132
100.12814963646007
95.72932511152153
100.74189944244979
103.24714834415025
103.27969945057802
108.92699632470196
116.93565589477947
130.49645587711848
127.57543143114736
126.34102130383894
106.7554107872822
89.09251271470141
88.27001048897368
91.03601017678714
88.2250311858242
91.43645074779238
98.48579393812082
108.8881819126451
110.55345534862872
112.47800459518467
112.96052239674115
109.26664789927094
105.563955812157
102.29988930839045
99.7297850902245
100.676163485641
101.81382443141975
102.88415191328616
103.53905232796488
104.5680162160125
104.32413073069424
108.27245743407197
99.7231936193668
98.89667296533482
98.40659636017085
101.16224667901331
103.70516447459516
105.47290233915035
103.69937649155798
103.04051870967781
102.73235951872763
98.90666050216963
99.47397079511448
99.93680540179132
99.0568968210934
100.26741326971529
99.77146952697198
98.24720338354682
110.03444363606904
124.00052087960209
140.47019465254772
138.8465922685558
136.75605983721326
131.4509387513129
121.39284423111167
133.5725720583425
132.37193990529053
132.48813870363998
140.51355180004478
125.18980802099988
116.870202700467
108.52297397430569
91.59768951552705
92.45150697294375
93.49628480062314
94.47080833772476
95.40731252984224
96.47094912184004
96.9825151247324
97.39393867646692
97.39367334679874
96.66895750743264
94.94599069725398
93.47805746833342
91.78339748867192
91.51210570299406
90.48284388453402
89.67008180255056
89.43910246356462
89.96937043983338
90.9841047927899
91.54725319557197
91.70783157182923
91.83715210629195
91.96694778802058
92.13281992762151
92.19531301638247
90.5649709204546
89.30431499092782
88.38738372015668
87.48358338836614
87.56999414228063
87.792473304719
88.20710133610505
90.84296447796926
90.62338582876019
90.20256014806282
91.16427312722978
90.01354638490227
89.5673372655503
88.6479678307405
87.66949951415549
87.65200484655335
88.88032179646858
90.53724371272656
92.00566563405019
92.40007477017049
92.21241364197591
91.70655539943478
91.39105630870375
91.69301052556756
91.78583985751465
92.01937140888109
92.05530385588072
92.03632560326146
91.99967926663696
91.9458180400498
92.0937006072162
92.05665048503266
91.87744124842251
91.43321457666731
90.00176648850221
88.8623577840203
88.3439734480238
88.2740965530726
88.79874681301686
89.69233021521205
89.91719201261931
90.22892180390505
89.99911857723367
89.85567329168249
89.8764305659428
89.0981633557211
87.8761669547761
85.59526087024446
84.74263757293606
84.59852715240498
85.3257302686724
86.46137651173424
87.05948265235304
87.55333682874098
87.93477260645331
88.10167994607647
88.46022659138256
89.09756161865221
89.40609186888743
89.33854375529233
89.303977165071
89.37545138643831
89.61527888543331
90.23885990757027
89.95946388684447
89.594825531775
89.14551058651281
88.93435532598865
89.32213827139668
90.38061539798527
91.46692183335155
91.73341011037604
90.89122385859179
90.12177491900648
89.43874246375697
89.91274592749828
90.83130820062833
90.85126178755955
90.83356535718237
89.90774431826463
88.4774687881238
87.60321017522243
87.10785797944025
87.66255778239945
88.04555781592697
88.13539123909372
87.82414067291636
87.51909120213655
88.3437139318752
89.71803744912235
90.37051544390165
90.6777341073144
90.19888982016329
89.39759934966291
89.34533539008459
89.59234553494433
90.2667187277853
91.06744906932346
91.17152904673847
90.99302592293378
90.61252708113494
90.68114109173742
90.87634433918612
91.16351145306346
91.95073983720101
91.69063575484533
90.68023376985776
88.52773539044261
85.76509725716127
85.90620119966023
87.17350424394422
89.76781372497787
91.80533758505604
92.25964226240792
90.84374684317021
88.58954951308176
86.97069865686025
87.17470476492568
88.42985981350624
89.77988609968855
89.8952231004293
89.24258882621383
88.63325790035714
88.51087592262655
89.2369993680171
90.08784327173197
90.34584117853228
90.18875311196348
89.81762533332058
89.85248102562491
90.42083110142079
90.91455962097228
90.96712065837907
90.18155833642355
89.10900273791663
88.89662735088642
89.08755019903819
89.5467935574019
89.2946214719301
88.44482021141349
87.45951140409247
86.79704386302424
86.99640142807611
87.14100246050326
87.41841379621569
87.87117595364627
88.73692258989853
89.85696397832425
90.52637031159878
90.77075421600873
90.69857550151163
90.59154706099444
90.5921469154102
90.43225761250807
90.18547109483151
89.93733045694118
90.1658791488187
90.02603714422615
90.04306160696947
89.95585945561821
89.48834695675777
89.12793488119333
88.9526936934562
89.07328746483725
89.09017460246741
89.0388673674143
88.81513964470601
88.67751439735578
88.52777743654784
88.07935722760762
87.99530081152783
88.18423050075504
88.12835539970084
88.14776697581601
88.14776697581601
88.48387958062662
89.1285112675835
89.50152703224613
89.39752249291064
89.07189375635858
88.86723433599862
89.00662644771637
88.8543701662442
88.47681356465468
87.6831493975861
86.85406474725954
86.88862061073426
86.7619912324977
86.74134401382376
86.43192872334768
86.14206112439504
87.09706071196285
87.7349277810713
87.99709161690527
88.43200275435476
88.85855612298738
90.32919342016122
90.96948499937207
90.71789539487811
89.62246702688188
89.18146970924164
89.81684577271105
91.30621465582585
92.29955764658958
92.83557362292211
92.74913821816644
91.62490995640437
90.0057568987149
88.48783782698894
87.91888486725838
88.12386606060872
88.77483038571688
89.06876789182594
88.09950300452664
87.03442127089774
86.14835810620947
86.12597991229175
86.37327207757866
85.79937349904397
85.48028714312198
86.00396747215589
87.06637795673504
88.37050710770478
89.02088118153564
89.36434871610953
89.3825604779306
89.26276700314015
89.5415039712775
89.75713416549442
90.5912641297217
91.57406237742539
92.22994321742081
92.72324523281841
93.28238830624396
91.04658280119278
88.27655739777893
91.92777861913129
90.40650892309965
91.64364634567598
93.2393861901671
96.60270810620827
93.42390364025289
95.80105432684894
96.03421142298403
94.78941713025417
92.70064540324005
92.17166619585237
93.39127949580106
93.84063030238376
98.11592231453317
97.9598709935997
98.17206804730642
95.5747495643276
94.47310155837812
86.36731541703692
86.0044484925817
86.18888484854808
83.70140017640743
97.03074793053584
95.90985301400099
93.78875240177022
100.38792561643805
97.90654498162206
97.18934565895223
97.95512485390356
99.43187945907611
106.11675481593501
106.09941752768673
112.20924375663783
112.10602764356692
104.79514310860645
106.4686832060548
103.74303712562914
97.09959003618168
98.52465736675026
95.3382892806123
90.51953690910067
93.67000838798968
91.9552629856933
85.7596921746961
89.4770359981503
90.02978898808837
90.55090122118874
98.20539206934745
101.07485303839066
102.97775987424743
103.0583536716619
113.46486672913099
107.27375115711418
107.84632952338178
109.70500827039538
97.94025963272038
97.87977101002599
98.7233896957638
100.30369663038522
99.93295873974284
99.95790582730233
99.63884729739385
98.92085189898603
95.23378676771627
97.4966205232271
90.50267932556504
88.70026878683778
94.956375033728
90.76009985582343
95.70098328366285
94.18242994926044
92.14251020571304
93.23826447412675
93.09710421302248
94.2120780969397
102.90780646273677
107.4108388807934
104.57385095437634
101.38702996263847
94.61243209638168
94.37519139895225
93.97608929341833
94.57575053593031
94.07367348030847
95.08118231158278
94.01771267998431
92.92977195186593
89.10452390666006
88.37991738686473
89.42577004691343
90.47314045970656
91.96781891762777
93.31206077408706
93.90166819163541
95.09374539887853
96.28088494599292
97.186874156324
97.89631880203058
98.15533685928939
97.72106238620127
96.86633856805899
96.30825974272058
96.30106053183692
96.82136815574502
97.58414851405814
97.71523886567792
95.68029696776962
91.90930390014032
91.62159540808172
89.88350380114052
92.59355297399699
94.5514548502858
99.47079305927758
107.01312866503292
104.97364132994767
104.09575213817637
109.94542368776511
109.57694513945698
109.31996977345005
105.04572918347428
100.29962887906169
102.16781718133333
100.85362397303794
100.67796839180899
100.67904164813723
100.15030297597228
99.68378233802542
98.82277894914944
97.76235199413003
97.68355390828293
97.47797191443063
96.9304805161304
96.36999658816164
95.91648772168868
96.86545257894757
98.12239753359786
97.95790002985319
97.6581375751348
96.2354738858416
94.85919693322975
94.50914558890582
94.38833976458425
94.92329173291323
94.94282055927488
94.61241700795749
94.24385436155143
93.43804696682622
93.43922870422662
93.36323748747107
92.9101674590999
93.37851445139142
93.92048923780753
93.95372274223847
92.98409566750533
90.68248285291396
88.63026487103186
87.87512566572838
88.21577546877901
89.57744467434048
90.80307795536247
90.43205567922429
89.73800797249389
89.1486796336577
88.63124995966346
89.60765137132076
90.72494479454252
91.46843076349178
92.80479626660947
93.55358118885148
93.42698844545757
92.41146821265558
91.69437187260345
92.43136055616363
93.36126445060937
94.40959229942234
94.72348901328631
94.2891170578975
94.46348771887806
94.68013066966219
95.89933323653645
96.9049893275987
97.04962265632942
96.84860619502167
95.1947130655859
94.54194965385341
94.81877246628541
95.51099487509187
96.75301045191236
97.30415169266381
95.68583596740451
92.49874383207032
87.80573526990203
85.05015116031791
85.63843743055656
86.54509701946674
89.14811236962784
88.46212392531676
89.41403450752178
90.13519431042621
90.66794531293245
90.71751862715752
91.39897256136273
91.54377429019974
91.45641878269814
90.59827357860678
89.62775258694528
89.52086011025791
89.87360715993246
90.38239522066502
91.06124997587753
92.25893446463334
93.2849685487817
93.98883323985356
93.84448912877293
93.23968018797562
92.95939640045661
93.08073341945578
93.60636809138008
94.36685883899787
95.27015350058055
95.95491315888165
96.3342299375895
96.51693162467404
96.35016225723149
96.49262591443758
96.31443772831409
96.18567742290128
96.2415558149773
96.61324775770204
97.17387822872031
97.81681233586755
98.77149525488677
99.026788791476
98.40764580231705
96.61382766629218
93.87839609243281
91.54259997979342
90.63511132332195
90.54560789535809
90.26445274997262
90.18137372028072
90.11103397976154
90.13057715775213
90.92465695274464
91.50081356123646
92.35635331688252
93.04102540679263
93.4727219869414
96.16206595748407
95.40384409234201
95.81487627199351
96.3617337059523
96.42569433277463
98.03764637618599
99.2975782708037
100.03638696055918
95.87249077004407
94.86934917718821
92.82351223374752
97.97611796494279
97.8039817963331
97.61438921857967
97.78733325057418
98.23714502014639
98.83092542138473
98.90446742394123
99.88175947096637
99.8956951131127
101.74261327944686
101.6129321443079
113.23725164674313
115.96447994724244
112.37256448923358
112.05250642711968
101.91167968564241
102.06195350433853
100.71398497513945
99.22150939909697
98.61433534477332
98.47586338234919
99.46033506432865
100.34853705847779
100.66675023425957
100.23192549884756
100.08954390242822
101.27669604891854
102.07144561162879
102.46531694504576
104.40802917951045
102.30489102744855
102.93830419268471
103.93622640548291
104.96554036943205
106.90218861154696
109.1602578474582
111.86845331535609
113.96902108530267
115.76064316878747
116.82420248802472
117.28543131680169
117.2588255262974
117.30684127545389
117.86037584105173
118.56256587621165
119.21129738109244
120.07425525739096
120.85674302079647
121.28263031573594
121.89052012332448
122.6217342887254
123.41508213774202
124.15957384442535
124.78122530059005
124.8856880997421
124.96019106547197
125.00679505989058
125.09837929674936
125.57126900892564
125.97240871256226
126.4904748436869
126.82801661120266
126.96826064899437
127.11523328301317
127.3773288971669
127.35357224585721
127.32736851574525
126.9189135842077
126.46725183514837
126.31270518131389
126.22995004918656
126.54022134703868
127.01534101337164
126.94382577379338
126.61049489117704
125.99427833298358
125.4742475407667
125.12493579284369
125.0826104084741
125.18211952635292
125.24279597556202
125.35916320114987
125.24281572503634
125.1021784157644
124.93307475249695
125.26574920175864
125.45094952133572
125.19714990710548
124.59892686591945
124.0999268690188
123.97554212924942
123.82918943558579
124.1187819477384
124.15271159226091
124.06229322293711
124.1099814174338
124.29601968816377
124.42120623200168
124.96442925305752
125.2171108639107
124.91623000140369
124.4088724331559
123.99287843496555
123.75320027598988
124.07135918740165
124.3642073878377
124.26674584807677
123.90509662680263
123.42581047583907
123.1290321627297
123.19923698816541
123.39077270815437
123.34288695041705
123.17748824628704
122.9827023452552
122.91024982753018
122.72011798187914
121.95296728008492
120.88068651053116
120.1582280858246
121.1509607937589
122.61080780736953
124.55745778807947
126.73992217635657
128.60648771435473
130.13899148861302
131.29100851674744
132.39113877354433
132.85427898678
132.83204580791767
133.22090027180022
133.1964536989737
133.79950185618605
134.7860728352226
135.49790079800763
136.40239886157573
136.99963382557712
137.49764855104706
138.14075341140077
138.27211127593375
138.58977453478542
138.77592366583372
139.0477400952078
138.925477416495
140.1621396415789
140.604928665226
141.26363789150233
141.63437944336115
141.9008579715361
142.19450160287988
142.32361544648234
142.51140516681596
142.51177433567898
142.538139833155
142.6488851651253
143.02814540973657
143.43099078491673
144.77715268942643
143.9522618654992
143.8416852324932
143.70530888907615
143.34878977750546
143.56662036945838
144.95376814730446
144.21983406997813
144.5654575709093
144.90659654011338
144.89146577628213
145.24926378224043
145.19415435065486
145.05472732875967
144.9381695850705
144.96417868130888
144.83255744534657
144.80395519058592
144.88671599358634
144.9414407412569
145.14794018337503
145.46556735722706
145.72608118984908
145.97976575810668
146.1199443745037
146.37285154664863
146.34482794744062
146.10523167909278
145.81287315786574
145.47451958297052
145.27767859655026
145.2214150581363
145.33240334422078
145.27817063625656
145.17302383891334
145.0420398552151
144.89675333831082
144.70396111259012
144.53786350414515
144.23651251799367
144.18023471135683
144.08801517416774
143.70766040098465
142.63301608718245
141.38077807178473
139.94032559778768
138.8029287426799
138.0839139852109
137.56148452126183
136.87205470440196
135.83150183208866
134.80964031750466
133.05941331834205
131.36682052064214
129.0908693625018
127.57745650333378
126.23770394417602
127.12150014587183
128.2385078028057
128.66624602933462
129.07943335879816
127.72373571271567
126.98724715688812
126.21658222587345
124.51373805847044
122.44245871122276
121.12523850066673
121.43782000259577
122.39659952393502
122.62874474287698
122.25298707658003
121.60575214188661
121.06749835726977
120.69925414490561
120.37880585473316
119.96015907365467
120.02853625521239
119.93657885410906
120.0247501860516
120.04767282215474
120.02344508934765
120.02514994713336
120.41601566572325
120.89342180736074
121.06510613096623
121.17381042513989
121.11307154574449
121.2776819797285
121.74486591691833
121.76805317055376
121.53292517186054
121.01869190008277
120.55795747646566
119.56225608739678
117.89477799663933
116.31892358926996
114.97529428575277
113.6316106167026
112.54647524411794
111.57183803569971
110.20562667696376
109.47794621539079
109.22406357470884
108.91267003486385
108.96774577150202
109.75078894698319
110.2954918437484
111.32745202079619
111.18283147761804
110.68151360880485
110.84849038513343
110.39617555815929
110.6758774113305
110.67587228556472
110.3083468400396
110.36590497866254
109.93443311650698
109.62639848093116
108.22736528149635
106.16872467550974
104.92070246996997
104.41575938636288
105.14011353263807
105.92271027713069
106.79388215508295
107.05408944332056
107.21323468333587
106.97688020774909
106.41786163204907
105.59959783650402
104.77624752454764
104.17140470195409
103.82704956094314
104.0064581804542
104.12110228267419
103.60790781702168
103.10628765037391
102.33293900860743
102.29439728323713
102.79842129889234
102.91269435335535
103.5686825480954
103.66407136266218
104.16831020478695
104.66487899286977
105.18451911812605
105.20485925785123
105.24636928450984
105.24636928450984
104.78853629919595
104.82862277135065
104.74755561589184
104.97085484778273
105.86017998037586
106.17907093792113
106.08696997067808
106.10436332335316
105.98316228533994
106.1077292666414
106.6937966673835
107.29896305783637
107.59185154712895
107.65649460826877
107.38244938773873
107.59386575561047
108.10236616509121
108.67986033304551
109.3613599597283
109.38166507699952
109.62879536918794
109.5624629131602
109.42814999825066
109.19371861141947
108.23966731745797
107.88114908492382
107.63656712952245
108.10315780235997
108.90540029609798
109.44593673928588
109.64454111434951
109.70761446437868
109.74419048333066
109.45945718122344
109.42110638154753
109.13359235232406
108.65279422653627
108.53280405081854
108.11228800642104
107.90757159163792
108.4905907040123
108.61568766259393
108.88273265529604
108.7997762864496
108.1309892846654
107.9171113319306
107.40813152264415
106.96291644386756
106.43231361508798
106.12779003049492
106.00362814839535
105.45865875866714
104.87762396752942
104.44786533360471
103.59341274314059
103.79326672337587
103.73570078310054
103.55326005139078
104.03003065557526
103.96255708158833
104.00175712078838
104.18104982125821
103.78831913940768
103.61186497928874
103.551928367809
103.49327242680013
104.09026585545513
104.93385119677569
105.33937322238282
106.21166072289333
106.02976619771025
105.29463186406299
103.66597698407598
102.09158488312511
101.09637731263227
101.30604420056049
102.41366249641145
102.94827717770886
103.08154672690979
103.06324316867607
103.18261349736895
103.51841109912196
104.05073933363566
104.78597915625406
105.38341257645305
105.32611506232602
104.81307150729677
103.67016888022548
103.0434289039239
103.19784693662753
103.67900395335388
104.45596583200836
104.45567401852307
103.8190083140264
102.97528629758261
102.13704542136905
101.94785546571156
102.74065967606278
103.3009189015913
103.73235176776925
104.28807684488967
103.57483060686967
102.25990823291666
100.0358492466472
98.09801916262295
97.59045544334502
98.05671738393964
99.22491480352494
100.28918807874636
100.92497566533704
101.28675564004726
101.6390576562956
101.55060716295203
101.28885320088168
101.11089671731372
101.53764473849498
101.78790411650203
102.11895280890265
102.21444403608999
102.30281112965753
102.46585225464251
102.82206389038417
102.84989407264068
102.92752603007436
103.0433259965073
102.90559123233221
102.7761495307758
102.51966425434472
102.29747892310529
102.13608905744647
102.34946532879195
102.44616557901459
103.12777262339812
103.47884663302608
103.12842899078638
102.91467631371529
102.67829150898852
102.87220356672182
103.21751023372826
103.33405885444584
103.49567997704209
103.70905616505395
104.26555293376727
104.34189097805975
104.32253886233919
104.08240970962756
104.3658371577629
105.22250415111442
106.4527106861204
107.96787304673157
109.640457603201
111.39884435805
112.57184410602667
112.82632776780049
112.20872294765056
112.2608490582547
112.2563903039473
110.20889438213496
107.0155874732737
102.36482757669522
99.50645049994789
98.55402739714252
98.1436388250923
97.18114598307415
95.26145789969968
94.91110318841565
94.02097606364948
93.61020218398359
92.87411595860681
90.99058760439034
90.26004759147484
89.54179633103652
88.78810466383624
88.41211971239359
88.04128779187427
87.89250749684177
88.47488749302744
89.62049807071797
91.97743791041201
94.44476689647028
97.39065319861129
98.0897016911719
96.01010402105186
93.27360047513534
89.65598244934164
86.86002176490874
86.23016840605297
87.24419734893468
88.08386372849019
89.36788208786953
89.99640189552485
90.25376843291433
91.24544042059614
92.1299623726812
92.63490914099035
92.11880027132293
92.12198255715667
92.32628828166725
92.57502442789747
93.15313483485534
93.07911515669991
92.38375115431292
92.4045082789536
92.01432733477131
91.84879522641455
91.58408623228736
90.87008789397768
90.88911398934144
91.30345256679496
91.80422209476609
91.74280540339034
90.7950394492051
89.81846293752483
88.56579452309559
87.5907729221324
87.35881875826409
87.25840078524863
87.834558610097
88.60840304706912
89.07557912899078
89.7032947419687
90.34825116137694
91.65928780221238
92.99155358892583
93.06381022085644
92.55099996947898
91.73449913136467
90.91912590803739
90.7927578450019
91.06429360774607
91.60427905311293
91.81490677228827
91.40380309091047
91.33587491813434
90.76112660667495
90.60305745734048
89.83305288156578
89.1440297909798
89.46276213879702
89.46239669606065
89.85624296973452
90.17497009847317
89.60476595742182
89.33386487938357
88.44472616757288
87.83398787296882
88.72330857365156
89.97881956593554
90.84124266947597
90.96827833457034
90.47737415612491
89.44096415069447
89.49110185827891
89.2273138517443
89.10802598593118
88.90365616166785
88.92112620055116
89.26834336530989
89.45496099539363
89.52293887992184
89.48754258689021
88.94756918430616
88.74491501782846
89.04465744924893
89.53231842566791
90.18013813102145
90.07612124395774
89.17582068435689
88.75264177466684
89.42448328769328
89.99454067624019
90.49228669599066
90.47466621595844
90.09684622225258
90.56597029526878
91.3036755098627
92.20536333365408
92.2628586089425
91.42764985777112
90.87874875670704
90.51147462958114
91.16408798312416
92.20365853943242
91.40469996042839
90.83509182006516
90.25561253452953
89.51481829489187
89.57023576678792
88.96394284612312
87.17241782923095
86.51401598773553
86.69910644750763
87.52201885105252
88.71464995671285
89.544587104922
89.63129012843837
88.98694269285453
87.83749042112525
86.50393935980193
85.70822845729528
85.6692750893088
85.75586797532108
85.87905312538317
85.63757576554036
85.60687978043326
85.88147207114672
85.88087511785542
85.96939252249493
85.86584398306795
85.7399077970377
85.8166639523239
85.92954171290312
86.10441631133354
85.94770902546169
85.860205047379
86.41732978133875
87.59807615554128
87.73686931412641
87.52241229361289
86.73135831005646
85.66954418157276
85.7837562751148
86.25430224590934
86.88212598154625
87.40008923770051
87.0053512422732
86.54089257949884
86.80509064149254
87.62253950124203
88.04859242924776
88.39366982017927
88.51325371377789
89.0502168991194
90.28094775363972
90.28077173659011
88.29113052178849
86.70702428502246
85.15996210256765
85.61502174016167
87.10941966135134
87.08184468665617
86.44137484194488
86.6241426196511
86.5613321442079
86.48273537302161
86.35047240096556
85.34604875319855
85.23725335512316
86.13389828854658
86.35515659147501
86.38727488605076
85.37400423343047
83.68734596484303
83.46722122226723
83.94617941649136
84.33461857976259
85.1084306584921
85.45996181918899
86.40477735326446
86.67507596611107
86.65239373718515
85.99938647883832
85.34824561237895
85.35248616959528
85.06979188429042
84.79206435269565
84.82580494417397
85.08300426333079
85.56096881909626
86.69752306156208
88.23274840566192
88.83147631449323
88.29260440713638
87.64036625458367
86.34673576181068
85.99059149677333
86.254896456624
86.5921254889181
87.61170344483922
87.46949393629728
86.90450442306009
86.1550170731889
85.17384706733068
85.67603004827026
87.55061225270342
88.24531585508667
88.82255205685948
89.10289461844232
87.60874156394621
85.66040919510876
84.27637779080072
83.75395048760788
85.26554390352723
85.93613824213344
85.84070461284433
85.7233146491838
86.74855527187177
87.60986487367224
88.00161421901042
87.2769175643553
86.99870006993194
87.41844404808886
87.8046482929345
88.49903476954275
89.25447391119191
88.58559433173967
87.53919602301129
86.4333549086968
85.80652837079637
87.36403702128037
89.10646306394099
90.26355062640754
90.25983092869137
89.54404768830787
89.47044163048395
89.71695831642522
89.95446153477934
89.90257330781463
89.66906553100635
89.56427309073585
89.54774450061451
89.5655003720566
88.88825766360557
88.54858945437688
88.68791653842567
89.45602257980508
89.9514246005186
89.81425256456899
87.84033825172772
85.83489155893535
85.3622073311824
86.28682305658087
87.50266469279744
88.74015500297274
87.95725557069204
86.55821090766128
85.17019964557795
85.05072205497954
86.69730040369116
87.64466271127905
88.61254445835165
88.12873137545577
87.863846972077
87.53013145259735
87.19536693736116
87.28910258915757
87.85349206558907
88.56930668090406
88.94126051750258
88.75857219295129
88.01106595188148
86.33785594500162
85.45403060217184
85.38073037443488
85.98644266684234
86.57202545333749
86.36825488544332
85.82321818150487
84.85906370100084
84.1292755251653
84.33734764733718
85.76938793796776
87.75530686469371
88.8265695211623
88.0741121298048
87.10597818240765
85.41631593345183
85.14943516670373
85.64947077717932
86.67956066379143
87.54171401369322
87.40399333922359
86.37082336744741
85.04031918476039
83.73950616252243
83.68980398114891
84.50631421302066
86.17558188114927
88.08431510322907
88.75632381776471
87.89759658145717
86.62218173455234
85.56480393206576
85.97951054871041
86.72402309184994
87.32922117456287
88.09826766800794
88.79925552739678
89.26823507833238
89.18386974765328
88.65368816655797
87.94027821736842
86.98655490804299
85.75236002889378
84.16746655151671
83.9582997034232
85.48777221412402
86.94767048047784
86.69884295896019
85.80261839740014
83.41759727759116
81.93903979397109
83.18297457361432
84.27825121599635
86.27438672843662
87.84621405917048
88.75365913741852
88.64649874320662
87.72974978239748
88.04295130774707
88.67554873041499
87.06370870831277
85.12221573246575
82.82538786516577
81.96607117972528
83.86992761547037
85.63804640626998
86.13237809461097
86.92001844216149
87.19643804014686
87.90305867887244
88.30076680965225
88.14882951494654
86.69762747006227
84.87006005687985
84.88475447316316
85.39319706101257
86.64133586981869
88.00395563539251
88.46767013876533
88.66775259552259
89.05104854871705
89.64939278177896
90.18251165699985
90.19970038691525
89.10078697560283
88.16515023439183
88.39089277323188
89.53532413974128
91.11053980766675
91.88381236791521
90.55002446243105
88.8161695415271
86.72234871313792
85.8778590251773
86.08649253155977
86.24558957032099
86.7470372931841
85.94037386642509
84.7314904338851
83.35024423229937
83.1713827817231
84.63866008442767
86.15140836377981
86.97807909340172
87.10848982857198
87.41018190768983
87.36489210293173
86.9292664175509
86.43076860772571
85.81377129821063
85.40409007538797
85.4818490182218
85.82368727057036
86.66446799417643
87.23214392267555
87.74940257813901
87.91684839830597
87.72818163904687
87.772909342132
88.33880528219547
88.3574163406366
87.92161998691913
87.35414102504694
85.98943230105102
85.09574434835437
85.23557367175052
85.42977865697577
86.11800742191338
86.68776147649618
86.83047140415019
86.88214215652411
87.67529072625767
88.70008180083305
89.76003357626048
89.89381405474768
89.14138735724492
87.94473296915463
87.29324310247901
87.7490054968404
88.25892163924807
88.45597905052378
87.8909242229203
86.67847402289648
85.73531949956366
84.95475516873704
84.5618105939247
85.51501415406096
87.33629232184447
88.18309472732432
87.74193497604564
85.84723314669208
84.09522304108613
83.35898089863323
83.74739575971827
84.77231435754514
85.09950088529982
85.13978974834195
84.43779995769795
83.81238052989875
83.91253206060124
84.11416109518223
84.69865056282833
84.80761522800198
84.99648465854844
85.4947166241872
86.7052695688997
87.41692630003932
87.45199029120865
87.08616637220729
86.52052700153844
86.34260185844477
86.6705117808462
86.62151257027791
86.58852167368882
86.32650999700572
85.9296561833452
86.925971771081
88.72963899359708
90.18428470183927
89.79084372184562
87.8209525017923
85.5182788766168
83.99566675102284
83.86881357978561
83.75344214762424
82.84538932547169
82.51088674145953
81.73897647912952
81.12250775911666
82.07207361972046
82.52989703902263
83.0474424533188
84.90818866627623
86.40493890870701
86.88382101260362
87.360412269737
87.23840884546085
86.69079958254025
86.50895392124018
87.35859796914842
88.4805939189756
89.33761792004401
89.28193411270152
88.57657185731131
87.80147856594046
88.15929393714286
88.8712370909169
89.21728270579794
89.66221029554572
89.85762653266498
89.73978043312208
89.1350535950024
88.3904730130672
88.25372911445032
88.98083550034103
89.55390763606695
89.35245503281175
89.21055617104929
89.54325554085636
90.33432743712238
89.62108497361564
87.37285546217561
85.31619772906842
84.409016868093
85.85642067907659
87.77555083262126
88.6173000646913
88.03889888339208
86.32547022444462
84.89104152243426
84.94445929620497
86.31328435633822
88.00105670085203
88.70938101310236
88.4453962680529
88.46459233712658
88.03922971459663
88.43795736868155
89.0591296143134
89.00860713499085
88.86057886843861
87.9886582152921
87.35563562499566
86.77135043960537
86.10921807039827
85.23667374197991
85.21612275887759
86.14529860861066
86.55687317880847
86.31984742974868
85.93900564206837
86.00516477053682
86.15843277738003
85.28365472564184
83.93188109937054
82.31117246053145
83.30095866964425
84.07991698724149
85.15933242643328
86.29138300582753
86.72775156383275
88.30923291782032
90.36414070830851
90.88388534491965
91.497888127693
91.92260851616065
93.25408335849893
94.76456132810051
95.63203949255178
95.46840135365069
94.75597159937057
94.65425511380242
95.01978703087428
95.85097769837374
96.9857360003672
97.21991676169324
96.58962243000128
96.38273737079003
96.6869786746103
97.64117745460396
98.17679918207874
98.2522606262371
97.22782238364307
95.67419276641475
94.40548039884912
93.38395954007025
93.54018730730758
93.47329624957679
92.85064740908875
92.3910471229375
91.56647921846303
91.7830481140132
91.44769979506128
90.87657926319643
90.32771947785989
90.30758800664438
90.25150264491528
90.61732374042603
91.20164991083652
91.22080042896646
91.3089792922647
90.53184092421817
89.84052215025123
90.25048615547796
90.99016774372815
91.30380296703505
90.6231820531839
89.86549058725609
89.65163956834603
89.77195598464083
90.29723386262016
90.34986939912667
90.63717730747499
91.58804720978445
91.87612373777084
91.73829959589054
91.03588866873082
89.92687404554643
90.26203124399048
90.01508232134026
89.4453212111604
89.10048002169623
89.18750130875912
90.32016025786756
91.73584350699112
91.51373427456436
90.71426508683835
89.5582282537766
89.82604099585127
90.575839796982
90.45813831644361
89.87409929996556
89.83716045365117
89.5844812157627
89.4548694696704
89.32976150695517
89.06890149637645
89.13908496547535
90.06859824153962
91.1987191492048
91.48543817248094
91.43704923727523
91.35429742991185
90.27523780166537
90.07410299601283
89.35604120735653
89.16212592723437
89.7538084808913
90.12647596929119
91.22807007307296
91.75893028444086
92.0877042564902
92.09784299143097
91.45710242805177
92.32336256056054
92.28617055032109
92.01550958136278
92.16241980288265
92.81869684344547
94.29765974704175
95.66750858843976
95.9880049292181
95.36868717261741
94.66868800627572
94.16786376865296
94.77150845859455
96.34559526363897
98.14405731082165
100.11885483153142
101.06221119162792
100.96425922681455
99.24392563454542
97.56686783433638
96.70289868523828
95.79051389699514
95.68469927321199
95.211033937704
94.54570492308751
94.83270803115228
95.2369978639965
95.15700523315407
94.9635389710333
93.8496587862956
92.89487948124383
93.82820673083525
94.28595274031409
94.47415711013157
94.2972439193761
93.17578017390352
92.70308124850119
92.6875657464428
92.5938211513858
92.33590129779576
92.07978060757829
92.54333455780399
92.47325627243008
91.4356427942518
90.50679032348852
89.75934565914106
90.44401933448886
92.0824764323137
93.09249427847128
94.1824053935445
94.42910933109543
94.58276561192976
94.40960543876959
93.46859825607471
93.39852152255652
93.13656024303539
92.94495526543203
93.77936912240011
93.8556391526706
94.11957627592528
94.17821924390546
93.4193896736445
93.57054857402488
93.82288677708506
94.11745821900472
94.04826269792558
93.843724268254
93.39937411654627
92.66126173740987
92.59056026834493
92.08653142828808
92.34843119191306
92.8340109945871
93.5174124186019
93.62180370199017
92.77541700961311
92.09369353958759
91.18543401929763
91.67201077832016
92.30840042506598
92.37919162449003
92.23195133374048
91.6731190866334
91.61494065238095
92.1611249399698
92.99209588411186
94.20867043138895
95.24684938459502
96.07561695176769
96.06242762000157
96.02543442674913
96.43480377817595
97.44361915590919
98.54493394946236
99.04311170610741
99.58908508720964
99.80247183276622
99.36030263389893
99.05078066430768
98.1618654781662
97.1170489817013
96.22181943106573
94.53205825935306
93.23807911178237
91.31392543509084
90.65254806644352
90.22839593184672
90.14020827268979
90.71033101060462
91.48988394803351
93.0748772204979
94.96747255867054
96.50332525074997
97.38218244374957
98.09747192883067
98.80201876236394
99.24357181083518
99.49263825210126
100.20086447204893
100.17849348486918
100.45585039232753
100.06273062501775
99.06887642836982
98.96799210521716
99.04882844881183
98.03803770119767
96.8586695619641
95.63449733941017
94.8651329279089
94.21787228111062
93.47960138544845
92.66668633018772
92.28163238122683
93.44052541515669
93.64688130002452
93.90134843381854
93.7616015950441
92.97844926958709
93.10956815070595
93.2423576456876
93.279650921425
93.75700446795088
93.82598952527587
93.3664655472087
92.99083256523609
92.76927731399336
92.69787495742202
92.42895304447411
92.42846177508603
91.0749903575284
90.57151374978503
90.49820653007136
90.11838171049183
89.82703180963632
88.74897041251572
87.46515447229845
87.3436123569279
88.16928166472098
90.56326904826074
92.15723354333903
93.57504004555625
93.130819345514
92.33263219748324
91.99035867087103
92.6107434482223
92.94311355965154
93.55906749134995
93.98078529721342
93.67137441301716
93.87269358398247
93.47318002414445
93.17140114543263
93.68625331453497
93.69365676401219
93.77800468230555
93.79462655269377
94.10046428211406
94.68501480684724
95.52014692803974
95.26450258397949
95.21137909840768
95.86070067141759
96.26400146247072
96.61104183330077
95.84882453846468
94.92208876412332
94.99374118788171
95.04688475649766
95.28048576583888
94.44177786463757
93.93777783665936
93.31057627834839
92.01171151376474
90.6228196240591
87.94456876662537
86.74603587531612
88.28503169743072
90.62998299890015
91.8067380406872
91.32124449157335
90.70573691357275
88.75844442331176
88.96558750835798
89.37122306520227
89.37198264950023
89.30358736290256
89.2874950989644
89.42763320188958
89.52909362895083
89.75327249355826
90.33865689499429
90.29936974160996
91.3779117236262
92.76276307898975
93.59154863348239
94.29765368004422
94.85648536675262
95.01441842216478
95.37563060678796
96.09105672949717
97.07231559776068
98.46543766722515
99.10488034356688
99.58380693404943
100.00720662060571
100.04679353975762
100.4458400829151
101.15234992156407
101.94292924293913
102.22447048160247
102.40867191184805
101.8377150580326
100.81286068763534
100.35143883223748
100.21283328162907
99.76967383822222
99.56068269664017
97.93899914426484
96.07740421876802
94.80243601332297
93.77911021717735
92.95612746956766
92.29403062756289
91.29532727688252
90.98945293784006
91.15333211926686
92.07411225139806
92.87715490866343
93.22650859733643
93.15219540166784
92.53305771089776
92.22899555811915
92.2300583749636
92.27567047380056
92.00257755947086
91.9878225425093
93.26363131488121
93.43033278092933
93.66945824660638
92.64052980742252
92.39499962016639
92.35420681168223
93.0892617465596
93.82290295175041
92.22784121139568
94.91517857322842
94.33651007543664
94.39512703480035
93.68513554861637
93.75903602282362
93.72492429228679
93.53349461708471
93.81389225926584
93.36254238893252
93.60514240756903
93.15614488764618
92.42804764449103
91.75598386001343
91.17099929806203
91.36960996269312
92.46421264685125
94.40518320938061
96.0638562841062
97.45377452217275
98.48225856473893
98.48135112365554
98.63340701103357
99.27073274283222
99.52399770453235
100.19680892693287
100.21862232189318
99.19745188206211
98.78702280528496
97.81589623543539
97.5854979206345
97.58618880595257
97.41595575115416
97.5480969479221
96.63016370348326
95.81937457835228
95.10292446280978
94.11646823775628
93.24366092952556
91.76263471851686
90.58718699889788
89.99456010680487
90.15684683377548
90.65101273934924
90.80944954595765
90.95416294776591
91.22279221537615
91.13220052662963
91.58098788072795
91.36269310036201
91.23780376614373
91.05655178100295
91.36959592370211
91.72919427995743
92.10978192777289
92.63776358942619
92.41805898562812
92.5365909962775
92.62251541950648
92.53749242747693
93.28577495939149
93.95646544982587
94.4458452119852
95.17508041235861
95.2638081850435
95.37123585558243
95.56515692500311
94.89053522976278
94.6982090340956
95.15966634719292
95.46736806363104
95.32666575323022
95.1626674141197
94.50169696211236
95.5800146835394
96.75355037834679
96.97327962939856
96.23258299240013
94.7155257071213
93.60242417995131
93.61524699080475
94.78016094523934
94.78040707449838
95.02884297101576
94.72242822191362
93.84735970838572
93.431432042165
93.02098864304277
93.99985841661687
94.69699058437533
95.30191396911664
96.09601317266635
96.65924342597245
96.52369374026692
95.89935545474587
94.4330645653141
94.49085918640992
95.49722231809329
95.22864367846496
94.96005356037102
92.23813292529195
93.45789795719907
94.23342795540465
95.45608278790029
98.78000907029951
97.67806303174342
96.93117856515794
95.71099887474935
94.48162748803891
94.21516988661956
94.59981749165398
94.99241419443773
94.78077878146001
94.74566674477997
94.76295603956162
94.51044209304496
94.56952514211153
94.99618535090825
94.90654706842453
95.34641942105303
95.04824396357628
93.36184536937586
92.18546746377764
91.46903403041112
91.0457046417596
91.01107329531114
91.09753334833194
91.09673568781447
91.83367156315302
93.8006558107824
95.12931405398346
96.29556017429098
97.44041513697448
97.68906214007332
97.74494053214933
97.1989171348406
96.63171501352495
96.33165731027611
95.96871375327184
95.35694197703798
95.02894504537731
95.14137071071157
94.0928046997411
92.71846955549522
91.37176477946208
90.88008327616154
92.52627964277191
94.07834063724528
94.34357677027423
93.2440745527898
91.73519823805373
90.74035831889468
91.04666991438529
91.58605377470305
91.2896682828153
90.42920604032619
89.59353360850099
89.13220542849801
89.2166433573723
89.23043631721625
90.12866653192185
91.12517628874696
91.65173010570754
91.86480533931591
91.3007638240773
91.18788877295391
91.64233237509735
91.85655471652188
91.85537781734936
91.40373173321643
91.27459495549255
91.75517666218701
91.97125338902111
92.38343325052195
92.09503873597532
92.29052457509579
93.56452981539157
94.69087017586199
94.57202754867299
92.85758258316649
90.7388172536177
90.38045000730295
91.24708123482262
91.8728716500642
92.25199375004827
92.49964546770737
92.94669354543448
93.46666891567578
93.16596437737758
92.1082239191834
91.7132566050886
91.56673653532643
92.4934817909919
93.70701351910665
94.32378018148198
93.82294630408323
92.65638700435096
91.33927993049997
90.73087602658708
91.24463231492045
92.08686211355327
93.44945630591157
94.61887867776886
94.98907707940226
94.49113063167205
93.60157320260414
94.29413204952363
95.98176524889891
97.76949550192853
97.73136457238839
96.72121400942989
95.6559187999297
95.23819067196969
95.9365234691783
96.07141092427342
96.16731186576915
95.81721613851316
95.21300671653769
94.72810950445886
93.93064834970313
94.4831146370224
94.72384114399448
94.53095337872365
94.74473873858237
94.8915388655297
96.01568817734702
97.25717915165744
97.45758046698064
96.47249570306174
95.20174238825484
94.50852399889695
95.34187949677148
96.3153583603869
96.54639447962144
95.61212145910436
94.20898646998398
94.07060930466376
94.24871845060838
94.60978015983682
94.24983069852415
93.02478529426743
91.88854385803286
90.45833839101917
90.73686174312412
92.08777436555633
92.94637328589188
92.63050051184904
90.97426191495917
88.8157488149403
87.88934491588023
88.18387587877201
89.80606572434095
91.97536114286476
93.25551726845627
93.7841160223837
93.45589151806008
93.28599004779154
93.11707174221438
92.66110465909259
92.61051507988778
93.02348994367878
94.0682775805228
94.62663882971619
94.19159550976029
93.21767059441295
92.44089213547157
91.37050761023833
89.66208844439583
87.90809776333306
86.61487334823815
86.51146632760475
87.68567103896004
89.0994313964922
89.91296891369586
90.56182297464888
91.78886384345024
92.58642270142036
93.0183331342107
92.3906205855455
91.08302334964563
90.78607071141113
91.20407208431438
91.57139124495579
91.42989378802297
91.03112803371579
90.86727006326846
90.86917469056421
90.8049813187154
90.58242158037453
90.5277187853495
90.19097640214174
90.51442754875
89.46108527182922
88.73165277797649
88.09861140831424
87.18075977211427
88.13762782107331
88.21252025664275
87.93403284364196
87.25341060228037
86.79813496111011
87.11666083878534
87.71076559147888
88.04560512922068
89.15406841738034
90.3192000933635
90.65877585655342
89.77466374112444
88.39469906928831
87.03668689556096
87.45979560339282
87.11159875860085
86.2819781324278
85.52850624710217
85.05497675734335
85.26086145823146
85.51525516912245
84.02260909562321
82.30585757262926
81.06948849379711
81.21136685273561
82.61983639091089
84.11360025282032
83.64939132652643
83.40652282834466
81.91044506355509
79.7558428982588
80.49935350009358
81.15416091520011
82.6510702971917
83.47593999249135
83.24339044535422
83.26002138856458
82.91246768932884
82.60632309104834
82.13477965854763
81.51586852490894
81.33352733045703
80.76679457825045
83.1523740740961
81.81368875229438
82.66292152902763
83.96257004514031
83.28432254271246
83.45503604195876
82.69068267435698
82.74805541640556
83.14582026604441
83.8896493408872
83.94092964848342
83.36621864018555
83.07208726141404
82.6050310894251
82.7031359180345
83.2071188286102
83.81711616353329
84.4546202404287
84.92806229539009
85.18161413070325
85.07608182503682
85.07100556048619
85.59485428552647
85.49792466254706
85.02247802156987
84.64129101053959
84.56951544037629
83.81601020249317
83.06661297859908
82.25966232942395
81.54960864727155
81.7560410415092
80.63423575609448
78.82159233862467
77.03449195501854
75.5000126218648
75.09164096517358
75.67539426822098
77.03745580644178
79.01081315169554
80.52024657450568
80.77674860883968
79.8939180393564
78.9869203313412
78.51282017054962
80.05672200300351
80.83725321377776
81.43710506163512
80.92047076543841
79.87464078561787
79.37664367831705
78.90593305542485
78.81766884982906
78.35312334038476
78.48561860101543
78.76580487278412
78.91560511931449
79.04584896447918
79.1941883408214
79.26580209182231
78.57574564351697
78.02380555822654
78.0895357370487
78.94177348419794
80.13421394365884
80.658446624893
81.03973570654937
81.01996477511332
79.87556027247702
78.06154925679834
76.49002280318233
76.18393365567897
77.3641288648004
79.8734339314768
80.42142483173119
80.37892589420463
79.41272954807819
78.01682508961704
78.1629437483532
77.78556696775117
75.90686414569721
75.19863767062724
75.18119660112585
76.71595382506037
77.8341901847178
76.84036478847591
76.27571050672685
76.39872224590144
77.95689982516778
79.26103660231009
79.01281061995674
78.56212318262452
77.69920821655961
77.9552436938684
78.0533469104977
78.5415481483589
79.48256203147047
78.72769581316103
77.72829626925035
76.21535511531725
76.31213558410496
77.67418737695185
79.49389454182334
80.52947022793686
81.59298592399755
81.59298592399753
82.31021686144558
81.51791356310547
80.48143082983658
79.29562736170568
78.54389072654779
78.0452408714808
77.71886037464957
77.59941485999033
78.0431598266697
79.05302660459493
80.44567794068837
81.9891279565201
81.6644311635821
81.08716153260515
80.14721023318597
79.03217766184198
79.05697047674539
78.45857181202447
77.15140629410436
75.83938950815572
75.82445618699914
75.97239960624076
76.77854988482402
77.46764169825718
77.4715317472635
77.91860241489489
78.53470215546344
78.3372289608815
78.55761341531547
78.34403434191691
79.10655027201263
80.54112511707093
80.91025114032146
80.52621943017333
79.1965857397516
78.2571147265659
78.12940174094993
78.51446036403281
78.35558233874251
78.07832240673002
77.4870171106631
77.04012606051221
76.81655044493928
77.05647940434025
76.83845955420647
76.41084221676573
79.17207909726245
78.44370184363166
80.6886246221286
80.68891707842384
78.53736079819562
76.93728034284624
76.18126144331335
76.99460819177747
76.97825430328513
77.34136539448488
77.01573793036279
76.54247572406699
75.24786610680025
74.38770029300325
73.43397529228663
73.51946637191152
73.67744835616129
73.79414399479421
73.85199824542815
74.31036503738534
74.620598275041
74.97734228721339
75.70099203128339
76.60410844446659
76.40479239493938
75.726601104166
73.50985319220378
72.72392525344169
74.10139887453825
74.70640756607563
76.09091741519589
75.65215121756529
74.61278306813318
73.89288416763014
72.14883366843708
71.71107913395127
71.17487864623597
71.18711719248444
71.94492117698304
72.07010536124812
71.7315681533874
71.82751677192311
71.60821117447887
73.44422906323167
75.11748471787044
76.96169784317618
77.56341699378196
77.99655271794104
78.5109305708922
78.87670297342218
78.96876116363852
77.83618535085297
76.86879412326203
76.97423230046614
77.41858866967155
77.13207215622698
76.76063331543632
76.52963949801914
76.56210821473877
76.28647004964522
75.60507362634466
74.83398127861152
75.50557708731176
75.74051633200344
75.68104866143223
75.54350422282126
75.10791591391602
77.7031042896535
77.18381953675282
76.58757998419438
76.03912713828059
73.34116011068987
72.84577308668281
73.22092817876428
73.55434020561948
74.36745557080896
74.7331423825618
75.76241553593292
75.97655450097777
74.95996269583141
73.41794110460357
71.69627253961562
71.85488406253728
74.46680162253915
76.96740931307686
76.86441520173929
75.23781440556137
72.38383909060137
72.54945034814324
73.74203993322871
74.55486761468282
72.46729808841441
74.42455060026886
75.14383276993503
75.46223914887393
75.79989016182634
76.00668391642026
77.30230096360003
77.4871202675676
76.8884182324198
76.60384938495844
76.86574422869737
77.45796078229301
77.5182338420748
76.27425454207774
74.73784081354064
74.59564724069013
74.5809505592008
75.28971344861722
75.77192066125275
76.40395827125118
76.90511235163146
77.1774690331346
76.85922075476967
76.98110379296673
77.28967274812729
77.99978201293486
78.74543444542259
79.12639626484767
78.80791544681344
78.07001862867666
76.89023176197578
76.66811900834627
77.49877992210638
78.51073360915214
80.06399471127835
80.72675407050338
80.01754768328381
78.23985022772395
76.10420319743176
76.31467705612913
76.22756489386268
75.45271849196347
74.29319900361976
73.50323530798796
73.99143825791344
75.07778808078916
75.64769311632801
77.0067704973528
77.99661799147971
77.08269015869442
75.82390880363171
74.54809716251205
74.72605975235025
76.70554005828679
78.1567215055214
78.77394108419497
77.96385664990278
77.09995413249516
75.78537669175084
76.51668507146593
77.58088685860758
77.21447259799456
76.74504632962979
74.85289272907943
74.51835393258251
75.57724700692147
76.20217992100243
76.92598023678953
76.99941188635727
76.66781371992927
76.7977682358487
77.73685335610872
78.64249587037236
78.82146863881248
78.4187326080006
77.67327507285309
75.89855758331315
74.76254150375198
75.01900794507807
75.4221180038003
75.76442236623618
75.521165899886
74.92056208353752
74.72973462058809
74.85279988950523
74.56649347795927
75.30022724263104
76.47264040588209
76.31662633895036
76.21194238226006
75.18607939499492
74.73336820370031
74.87386407363637
75.68119103484328
75.65090064136263
75.342760808291
74.79247074309939
74.52494570394698
75.49117797573338
76.41830917550836
76.61251711646824
75.92220959779283
75.10389525444462
75.05479572254093
75.85482330269795
76.90248495901417
77.47214707393334
78.48373318954083
78.18150166755852
78.01897873021329
76.54746220387821
75.04017218799825
73.74132464440825
73.97488468831486
75.24135824380294
75.72371285165961
76.79394059778261
77.51862940601521
77.32183519112523
77.02683175900343
75.5264012932361
75.64538642644152
75.94396580153128
75.48722325657226
74.79719951372748
74.26944409946353
74.99423615622281
75.87471280230852
75.6224344553838
75.15838629970574
75.23720790338052
76.10585089408113
76.44432571334241
75.557043245629
74.39381406374403
74.11761820142108
74.29610745526925
74.49602711356675
73.27332715828358
71.9163397384271
71.84036178986891
73.60953555557444
75.13522275860556
75.9728542697569
75.1083207467644
74.03907286193959
74.1484872852517
74.61644144855366
75.09926839439157
75.43879210383527
75.17871471989817
74.71279385874551
74.3313147625828
73.78174645687123
74.42547561150407
75.3906711284418
76.56757372800115
77.22028723276938
77.12502897926979
77.04864135158307
77.23336053051233
77.43953307777369
76.68841631291704
75.40863203914898
74.55104381606662
74.15886358874715
74.75786783445542
74.44483124652874
73.75622417063423
73.4351678990864
74.29441639200577
75.59016136522446
75.9964664239488
76.12637415930944
75.87672259678376
75.4677037647967
75.4233650338315
76.75517801733585
77.61009549641791
77.83597911906502
77.60633617727164
76.48535028273278
76.88638648006629
77.55024608452203
77.39056323893386
77.1439877883459
77.1309729018469
78.25170906909491
78.75890558930804
79.06107706112789
78.7510288877403
78.11768001608955
78.24205868191176
77.55932189285514
77.04342688987109
76.51855075108026
75.14353510783161
74.23164299659004
73.55680583776967
74.21260614671013
75.26716855661107
76.07099480422295
75.09339464498251
74.13820878227801
73.4203244620491
74.14529049627617
75.15684855617495
75.21349959429205
75.15984776264996
74.4316792731251
73.77983498613311
72.92414306957501
72.077564771935
73.54103061012536
74.12250548178895
73.74483853099986
73.3985180676244
72.7182427768229
74.07125615621902
75.20428270440947
74.52884148409593
73.38547519271744
72.71192160122366
73.8663551341725
74.99287971839847
74.49530917437502
73.19462754181893
72.12731318388029
72.86701327446052
74.63374470647432
75.03166352955525
74.0772335443655
72.09764656078386
71.29638218109375
72.58037687806257
74.72958418032177
75.96248292321769
76.01943452883384
75.48703276262539
74.14627767600582
73.85057902258943
74.32444361198169
74.45329931315737
74.34008257755836
74.60852865203037
75.0282507307355
75.87063155663279
76.76825019291306
76.5828174787983
76.19785750365516
76.54793720488061
76.60898707204939
76.2272867176059
74.42091672039955
72.21451737344499
71.17465067395067
71.70019204231168
72.6053822174502
72.56247228987688
71.761645048783
72.24492568975724
72.88115072103261
73.15743580767612
72.55827512776096
71.42566133795154
71.92283049050819
71.43615958822706
70.82292459649494
69.69358284175354
69.48657604785757
71.05843330099566
72.93890099697103
74.27771552441584
74.79797856797306
75.29521081155954
75.16146995002902
74.97272119225305
74.53480486347183
74.7142028828025
75.84866370671449
75.51915203142207
75.31152843182207
74.77607855565543
74.577615869408
75.04984833988675
75.30339680668993
75.52960183918938
75.75430133615106
74.81350012475758
74.09700741539584
73.9031829607135
73.76162527780725
74.62169492163603
75.76890150873771
76.61591508190862
76.93078934297257
76.19351554676606
75.39149569798032
74.03369605213612
73.96652981536857
74.74522346890532
75.87142225805265
75.95793492602411
74.94124720013431
72.56474331581569
70.49977910495465
69.51788686120037
69.98333173507311
71.59317692434567
72.87721085585
72.87791725376849
72.29375578613839
70.75752129654286
70.73792292373581
71.6557684112123
72.73145358826123
71.37210015184789
70.00784106308261
68.77752719096712
69.43631920448333
71.4018000049773
71.61529167951988
70.95321101030274
69.23070991772332
68.63278581358364
69.49823000021823
69.82203865606337
69.52006602810695
69.72072741637001
69.00469132125164
69.33771732563753
70.59823153644322
69.65605977110141
68.91409012967523
67.96798988955855
67.09936660908102
67.77524885229087
68.71470124117793
70.85060274869855
71.70885420368212
70.75544941537989
69.22059287317077
68.16685940490075
69.459016691094
72.4567512601625
74.4566416006108
74.27851892344754
73.39070049856959
72.07068843285151
72.15254030779835
73.10771724558816
72.43585834733949
72.49949091594172
71.20312538039968
71.33629168513936
71.19144510984077
70.22858868866328
72.77422454144748
71.79809366495569
72.44575842689363
72.70978646770776
70.5068400587569
70.04689699549971
69.81456318872122
69.94051348473533
70.17768346694253
70.17138734381166
70.01424343780481
70.91646774271914
71.0260112258283
71.43374752170543
72.25208580258538
72.18316876520277
71.7425242504065
71.30082229797367
69.91763349863926
70.27390573656014
71.15183221684867
71.82271864347373
72.07129212701489
72.24590588634533
72.29288791696811
72.98814564212553
74.06592228816922
74.16524627693951
73.65492554823598
72.86358709341216
72.15745732432777
72.28339552947072
72.99025711133879
73.55985704512403
74.01032745816754
75.35301192021373
75.26890763089497
74.18255568403454
73.17275105369505
72.23170023446318
72.204193598632
72.86290530805792
73.01062906554598
73.274167769586
73.55311828998471
72.6197622734532
71.07384187232032
70.56500404331854
70.89526489388544
72.9653331341679
73.56825758645574
73.13634297948252
72.58258278799907
71.20602659195467
71.16600889829833
70.34816768462984
69.57342543613103
69.41123894643934
68.88309076742742
68.66705312231659
68.65557245565765
67.40530201883237
67.84596498226624
67.99819895418298
67.70696728805686
67.20081184334128
66.03800949303941
66.42321984765223
66.62186523853177
66.83860586296167
67.60657350541163
67.70268695061282
68.50716045682591
69.08574839479697
68.93490861679464
68.71741267426748
68.13124762747373
68.82782364399719
69.03717202839587
68.76623442801312
68.49862795142019
67.12738282951243
67.38511637340424
66.94555199240357
67.7149933334714
68.80541378867204
69.44066545218095
70.15483925183516
70.68859663585931
69.99404330711968
69.91937221284371
70.12945569551928
71.69968381337873
71.61319040227687
70.73475060124528
69.07729550239834
68.53598290426939
68.2328236415765
68.10137614170796
67.89971316836085
66.47379645533917
66.50360131950154
66.3769696928582
67.51056962217514
69.6534363959301
71.94919884808566
73.55479141022175
73.67943528486563
73.56171129149985
72.49667145969164
70.70889037749137
69.50267657466823
68.49934168142279
69.00057960670162
68.89513140856563
68.34069423475566
65.79307743331802
66.3696641214928
67.557261052504
69.5054591111086
70.47024116743
69.95067232175886
70.2071936202532
70.10293804639326
69.76032067670515
69.06408763777084
68.7143474273799
69.42906960908499
69.13692379181569
68.40138974026917
66.39093774017911
65.83503128577459
66.0018019394617
66.05243704839953
65.20955223832394
65.92013242715026
66.46729548082259
67.50179930031203
67.93113067116016
66.28460267630545
65.57022306224343
65.35547689793009
65.10588212334413
65.65215507033088
65.24288734880166
65.17622050894357
65.51693274137608
64.98881194780536
65.9589852504854
66.15020406753646
66.19931171938862
66.07040671410495
66.28456421827346
67.20403929518024
68.6594497102773
69.5757277969011
69.20301581981226
68.81451045036026
69.40487766324586
70.35834954174041
70.69472547845359
70.75181221980135
69.26815876473216
68.60777529894077
69.35425203392366
69.61058753074622
68.81024957716025
68.00536917154906
67.17536863741034
67.9899008763249
68.78585596984168
68.2560742188452
67.84475039925569
67.35318270538318
67.6981694080058
66.85636122687724
66.12916297152435
66.66314208610241
67.34777860309799
67.26666522059818
67.21519372515404
67.376055958851
67.12516529700143
67.07780539070546
64.78172079041087
64.79984464306223
66.22202728284843
66.821232218058
66.58836881293992
65.73059585882064
65.05503284143506
65.99937008347963
66.59605346069428
67.93877607151062
67.88789145715636
67.18058114588237
67.1797784028481
68.02417607544095
69.14774824330226
69.30068318497393
69.44217095402307
70.02713110191065
72.78810165477118
74.89495270523041
77.07398525665546
77.66902562292283
78.77061349374235
79.93289717061242
81.6019889571477
82.47755089872216
82.46270311919588
81.4482087928657
79.79833222550991
78.68714812534435
78.02297955579978
78.33181012304249
79.3554954458826
80.3882863715202
81.46061776944545
82.02546394053363
82.34293259941047
82.8839383352455
83.74172743169669
86.85033962227092
85.8411197068226
85.40865048168796
85.1176050170989
83.83989108113202
83.13100393488543
82.37383946992618
82.19144947732227
82.96114355542484
84.12782422284593
85.51201791701837
86.30419117251532
86.42757045596827
86.817225837797
86.65595860831357
86.03002061944966
84.69633714150436
84.05214150544565
85.49692388028123
85.71853978037365
85.73070970987065
85.78180249352569
87.01654818727796
87.55723032085197
87.52657613690927
87.40662507896916
86.0464812515488
84.07712960011341
82.82981843581773
82.00180417465266
82.56134640547148
83.69468648307758
83.68993036264774
85.54697298785028
83.62713488720567
83.60911894580042
83.75744161441368
82.95503724216223
82.9601858413547
83.47105148956814
83.71503845314719
84.43298583012829
84.99413448159018
84.73720323473815
84.3403693421785
83.31958266996627
82.60385329913171
81.80194023115942
82.0508781036377
83.02533358359408
83.94151645317858
85.46730908246079
85.49886955039868
85.56561843938593
85.39721564094279
84.97787362584648
84.47245614046548
85.06833677383703
85.93274951674873
87.08521652903433
89.02088809758553
89.93834867801114
89.45776117260242
88.95782619213573
87.30326901356301
85.92846666189753
85.27243152908237
84.73488218922138
84.42586600815122
84.1219518985426
83.99023017636873
83.99142017594399
83.68697645250215
83.97280626694764
84.22028157644029
85.18494975640522
85.84774742218569
87.94965276145925
87.6602626563768
87.69326147030507
87.24679155035842
86.17873958081424
84.88383240100772
84.46281873746548
84.70598305659306
85.20672591904275
85.49664106948322
89.12835321933122
88.39322194153524
87.57521254625634
86.93175843838529
83.59304850331617
84.86544449327518
85.1043483727486
85.58340150873468
84.83615978449582
84.70439427950603
84.25688066032983
84.32799030351963
84.29439016911911
83.84096686200363
84.09132325575864
84.54792585542016
85.46462347127925
86.20127854575657
85.75126568675887
85.09160193013398
84.80453172565548
84.39553482028319
84.24872740585867
84.16353761444155
83.74195687894795
84.39261122387755
84.69180968694229
84.74375496579691
85.08460989573595
85.2614193885079
85.7360938595803
87.05466262539575
87.13272456189908
86.03028283270959
86.8799791224387
85.77015621744529
86.38058180951825
86.8091404836926
87.414545244473
87.56057480586202
87.86238008522396
87.17353202585691
86.90980874454517
88.32693833941167
86.01764433778919
85.9479544578129
85.8654071729785
86.04551323338144
86.09313345754246
85.8760029448293
85.57703919037712
85.34882480949102
85.28244755082031
85.28074705704063
85.83096746843937
85.70996816924547
85.57280545663869
84.91022564871179
83.49749284056833
83.05150516952416
83.41403383085881
84.08253696696951
84.13359322849091
85.02553685580936
85.35697556201299
85.79306706656055
86.60467036358655
85.86525905336575
85.61984001251294
85.74364920505828
86.37072560610507
86.95905795979957
87.58973914420373
87.73622938354437
89.22354707702875
89.069248616493
89.55523525766898
89.74218302700173
88.04811265807601
86.10224751167009
88.12647743215142
88.95479428881244
89.7057820613669
89.82470954882272
89.86397585793476
89.18621605046829
89.16754626974478
90.17346977401436
90.46712613510435
91.0944576933478
91.9410555433855
92.65101582042672
93.79734953561227
94.46923349817376
94.834196344568
95.2469157875565
95.64676599188762
95.40206086129503
94.96159203988982
94.40234601004937
94.28392683375029
95.54684214646448
96.49619990056016
96.33625991706418
95.08225509829278
92.92469704265409
90.85778148198405
89.77542140290653
90.64905645059144
92.19084232276701
92.67046242195461
91.64520511046162
89.12471390795764
86.09911504365913
84.15443405727038
84.68823617032157
86.55924564273656
88.18560290187996
88.47851857830067
88.86810148935443
88.36654532834552
87.96888265176631
87.7568238134224
87.3802741200419
87.23266664109626
87.29800884397456
86.72528439174712
86.3649408489215
85.50852070297228
86.40054489626779
87.25637573713612
88.84055737345183
89.65803262049427
89.31933424607301
87.26137652659268
85.32907272936653
84.89971883096413
85.6163648927326
86.75958094157217
86.70075083299879
87.03804965866135
86.9531987109094
87.63186175639403
87.84210908519805
87.51582206117143
87.03985274044872
86.88680559024532
87.95864639994225
89.11093225772737
90.31532044362481
90.69768017842654
90.66173264363646
90.32952946296436
89.64201953636345
89.4852496305556
90.29550695330774
91.98362375428837
94.14236709432835
94.17392944234285
91.61182618013254
89.8888589518661
88.19958317372772
87.55403499587624
87.45769062591008
87.78703174686223
88.19291172160867
88.20822502861624
88.44452088018781
88.367649029494
89.32882778320997
89.6377632136017
89.72415666397838
89.1923493534292
88.21142194623165
88.2818404931687
88.21533973312351
88.24725783160524
88.89293775678802
88.8755422170044
89.42078356396748
89.5400006241721
89.33751404098946
88.92294508461829
89.24272739383007
89.43727664741456
90.37190184921946
90.26848481156519
90.19468217451187
89.98136559155515
90.19239258961237
91.02070004328218
90.70098931601223
90.85958827462964
90.61287998370504
89.78594524518047
89.18900623920129
88.63340072879978
88.06324028654893
87.41085002520917
87.05942371432246
86.28168152503127
86.42594939392202
87.04735393222623
87.22005805737196
87.16910359192815
86.74144758635491
86.28211842599048
86.67227680702109
86.86014759946029
87.1652019653081
86.91068191589554
86.35562604900119
86.97504498019549
87.3906420041612
87.50779893244344
87.60320004625916
87.26544444170143
87.09674118013744
87.24422663036945
87.45143357817761
86.74301054101969
86.81569481098947
87.4334956716937
88.1502111728063
88.42237230095795
88.30747016758129
88.0992109656447
88.11280432577932
88.5151872941263
88.71531344530696
88.6316695050623
88.27796874513416
88.26638343361184
88.8741622798983
89.35569561442848
89.22634600518528
88.70573854985857
87.61115810053579
87.58925760931034
87.9671346333176
88.19384392039389
88.51064304682001
88.47529830317913
88.40893846793153
88.29012852802755
88.85877212697227
89.08243006975329
89.13259982434808
88.89207377044228
88.97897503119995
89.30486870219909
89.76738345707804
89.54430385462734
88.94691014283876
88.43552390623334
87.78849660024376
87.56203714150254
87.22985038534955
87.46895201017242
87.74330055592682
88.24217088318584
88.84139050414457
88.69695902662012
88.61419937448484
87.88986958404611
87.54598486254646
87.87821731893689
89.05354586372181
90.44094447468916
91.57544112079545
91.60971825880134
91.18334739094061
90.41203676069179
89.56224023703292
88.76177791818958
89.00765880733428
89.41734829151125
90.22421025943977
90.34635586918088
89.32053989804703
88.24617893213608
87.57677339836634
86.81326475633674
86.83413194495873
86.87039828933719
87.66204639574563
88.54568793563594
88.20642385318914
87.56733864888314
87.33637617371417
87.54428277411454
87.75561471887107
87.23208109479897
87.73227960980574
87.30746510564894
87.5077315385976
87.82519653665715
88.79134173258194
89.61603487861147
89.8754624790905
89.9171071253594
89.16166908752804
88.68185569563823
88.42967627400658
89.59167030301862
89.59182766811978
89.36518832961501
88.67642254123454
88.09860475732803
88.34298562219281
88.23042847412093
88.6554507849872
88.43424556340163
88.01158151833755
87.3941181444549
87.1556629977677
87.39584339137296
87.79423275532987
87.96724455718775
87.67045430657956
88.07854335321436
87.89361469843634
88.1919623878713
88.84135665523573
88.77184897517942
90.18907920015647
90.37763277899938
90.67661609410806
91.11216552992819
90.56032742072286
90.4020109378798
90.1264967077665
89.28804211759129
88.8378869179482
88.73886425590469
88.61910355567231
88.98113539955285
88.77256237496506
88.80885520592098
89.1003901992954
89.28869173796302
89.76752044700949
90.76079327042913
90.48222401235523
90.42046685836243
89.35218129463522
88.98115398461135
88.86149700641896
88.42973219208685
88.21176876082365
87.68327412175063
87.49794559012307
87.19991606870124
87.18089726772337
87.358609688354
88.14261271257043
89.61020962983471
90.90893026581455
91.45345259441932
90.77703866591716
92.04785846507602
91.02819975196645
91.93554039296383
92.09526169664962
91.46084155723194
91.02598231231616
89.94038297616036
88.95950173401806
87.66564977421243
86.3813374529653
85.59068497529859
85.11964330346441
84.99763915859764
84.65201827160998
84.53642370916097
84.71301032551403
87.31074886498094
86.2175495814282
85.8681046170804
85.97131722263394
84.77268406915415
84.86533925859183
84.0106320366839
84.52453201121129
84.37868587528737
85.17335303802312
86.46557792685886
86.93387504711745
88.60477190189482
90.10314979873284
91.33418780914187
91.90353272797692
91.65136380097084
91.34264657355482
91.6426575051442
91.71004997514949
91.26696261661016
91.06403744998737
91.1923754170076
92.04871295301618
91.89699721438127
90.36180893415417
88.78200452031268
87.54867889248634
88.30148787319537
88.99024934282674
90.17624405985434
90.45537218649251
90.24517644366968
90.20858566881594
89.52128042654371
89.29483132454727
89.10834946051536
89.21171114526732
89.90642759769639
90.42739017035234
90.2425066384468
89.74146408806598
88.44548085488118
87.22936605152756
86.27980257740339
85.67009425821037
86.08126385148383
86.87576264961791
88.22799582469851
89.1643068461142
88.8690444809664
88.71562425963067
88.49277081014219
88.45738323775991
89.49421596406638
90.22552018881781
90.48657106544037
91.31390998291745
91.94133399428158
92.45410595253719
92.76031964000907
92.85497555578944
93.28104415464965
94.6683777310789
94.73850977044907
93.61948829559913
92.60089641251433
91.33961860902151
91.42107205310194
91.72589391830397
91.4163132038532
91.14760949599578
91.73315027814596
91.68018387153806
91.48619304923251
91.72403864686945
91.42810847300657
91.69569039561478
92.16663483551795
91.49409899543076
90.94616882105153
89.51366568675934
87.34315896005005
86.66258487183596
86.78436030799084
87.52816348243174
88.31667791019697
88.53889428903584
87.706707892951
88.03119653350531
87.68977637195358
87.5420283565234
87.81393066577161
88.01915454636863
88.03036593508494
87.36679914617558
87.00228719365208
86.04911376283098
86.47626554282873
87.72633287469179
89.55063404598184
91.35760683981917
92.2955051980395
92.89943004117016
93.41025194481186
94.27549323672174
95.01421415982253
95.58699947357839
95.91335261456028
96.35261637753617
97.33533793079282
98.36247873473879
99.59364461641694
100.54217355217362
101.34953422640821
102.27618114349644
102.94840627663591
104.14800024136372
104.62220373901528
105.21003522373591
105.94654474196088
106.52237673103294
106.75160079988298
106.79166569691941
106.82056819264912
107.13199633864411
107.34719742151135
107.5273434501292
107.31429132384363
107.25245487968265
106.75223940797822
106.03328753786793
105.3736511736432
104.94622033059883
104.70445754202031
104.82582237337706
104.9263423071763
105.10776153812094
104.33348192747847
103.07198447842678
101.51250509585783
99.76821707514469
98.05300926731526
96.80840929193101
95.29394518153924
93.78793977727376
94.0062105629684
94.66038391442744
95.04068577607711
96.58006832725329
95.2643911318337
94.18393298833247
92.59196320276546
91.12854159041336
90.99254239660728
92.04612331833151
92.872945011165
93.47234618100912
92.67948765170173
92.04891260380651
91.63510241483033
90.2627701725054
89.82796400153039
89.05751831821259
88.31056183513746
86.60368519599942
84.47585984720925
82.7611334142145
83.75910833684424
86.00965374755386
88.69387321533264
89.62810420680333
87.39685160522585
85.15168014774467
83.31294739194755
83.19812570657687
82.86624245408026
82.15069297432235
81.39830760254559
81.31292934419953
80.33890078214031
79.7638114244612
79.85643666249405
80.4393874868781
81.74237278981825
82.67122412049603
82.64034127998168
81.57653384538165
80.49745853721204
79.45408009393067
78.14813287224466
77.90843786764214
78.4132445989579
79.94504735539878
81.2085638391009
81.87260442702997
81.78004739531166
80.3639717587312
77.53723755816517
75.69718140646961
73.61009605951375
73.95253570802245
74.50281013083713
75.88665373709325
78.1139265064124
79.33080822022076
81.50054803093916
81.57896475984131
81.2220925867023
82.2092460279267
82.36808255214251
83.28019147956664
83.52849233583534
83.0781565106891
83.15768149860493
83.28066818113214
82.93873395583879
82.3447236260906
81.32198438261445
80.19711853950452
79.45710089981328
78.6923642172348
79.38084968205521
80.19739563074799
81.18341470971636
81.368512408969
81.38732698841712
81.2636502232208
81.31858571810857
80.9905674601987
79.46940745200459
78.05250416776252
76.56477661660149
76.41766537348269
78.3373424058615
79.94081584761672
81.68290194675964
81.62501062313748
78.27711096273217
75.32686197179584
72.99413735223055
71.01198900262024
71.6773333063834
74.98221842929453
78.08879882603381
81.20341692794676
83.65013960203757
84.74155254459615
84.60979950117972
84.68621217743065
85.09416399788971
85.60287815649292
84.1384115579308
81.25681075331524
76.1985232312389
74.7716554037205
75.80898709223408
77.13819596531455
78.41148653509036
78.25411078175662
77.40922130267965
77.4262794107327
76.97113521450265
76.61809116818209
76.9600095896757
77.22489710232881
78.62086687729418
80.61090584437956
81.94122212165324
82.44461448686057
81.96687001837208
80.67099809181062
79.93972527069528
79.59310202224995
79.53187876560916
80.06643149110145
81.24716355466377
82.49960599339941
83.75905051021608
84.38308202570036
84.60297690825612
83.53742222449874
81.35598852256491
78.9177437237894
76.96984474680771
76.13035901516663
76.97810733683606
77.35795378898696
78.52196481145717
79.96532709463727
80.95188755996008
81.32616185845686
81.07492058396647
80.27085595425933
79.43709014540329
78.40161589459281
78.02659237107251
77.40222383398233
77.11917924078587
77.08717488078757
77.67961364063373
78.55486745046113
78.90879799576082
78.51911930515153
77.78794754604365
77.98814009626929
78.63352446224934
79.27907960915603
78.87599997225988
76.87673836082087
75.54934870657776
74.64704184803536
75.62401218618956
76.28792837432096
76.43776107381076
76.73223061289235
76.79340357872964
76.96669419450282
77.61252940424602
78.16007238106673
79.1320541889479
80.03845514610357
80.43695775270643
80.29667408269577
80.00879993007142
79.25703691077504
78.80789138177329
79.15394678398518
80.01704365231616
81.11753280029653
80.67319598131668
79.93323218208495
78.00028789163267
77.48029126569213
77.87409188362108
78.5168543568484
78.72693495080942
78.82666257424864
79.28206854723643
80.14260093131026
81.72957100586713
82.47696857129384
82.24126459804685
81.37012703869904
79.48776948609685
77.86475049535281
77.24864111746629
76.86314626023712
77.56738065621681
78.29111666136143
78.19907124349152
78.34025059106014
77.72693041108731
77.43245499031157
77.11927171688566
76.94812045253124
77.30160354651106
77.41774844858828
77.23914813722763
77.39452655194816
77.42734987372377
78.15697795060095
78.92939357905011
79.28771723092304
79.66420677712212
80.42622882532987
81.0024530859438
81.04211058255628
80.60493376777251
80.17327610766102
78.89275282389731
78.16915771719421
78.2833235285338
78.79793212264495
80.21682977792537
81.71065521988237
81.89680020835542
80.89627876807319
79.71550996998286
79.61996335835805
80.19025686270813
81.8829246684342
82.75602690371896
82.01525006879689
81.25847390093823
80.67567489799045
79.5697213835553
78.71043611012398
77.75007178157529
77.74927500322258
78.51085792726141
78.44310303316152
78.5605883213653
77.85049235319849
77.25974369720804
77.71455404318398
78.10030928902515
78.38716756546172
78.59529960432509
78.75272178749823
78.61413531944248
79.39032923548781
80.02197719258075
80.30620896409661
80.33919932513558
80.87646960937441
81.9058185977627
83.62853194408966
85.22301813759859
86.21353924394849
87.54166651271694
88.15113555871164
87.72776163350012
87.41171204193249
87.64429464237759
87.30001076504091
86.23782039061129
85.39007630123125
84.4692309452192
84.88761515103697
86.45386354317401
87.80447988956244
88.46217014072424
88.92752951461271
88.32980609805306
87.94275481143
87.94147616414135
87.85969601972069
87.19582608232282
86.74707464065969
84.98475427952414
83.47676332889537
82.97636581630243
82.44716839178912
82.16168493698008
82.1059957088002
82.16386103283128
83.11142505089474
84.23439694094468
84.12199770662916
82.84744353465251
82.15241895178943
81.63992098864306
81.34660495168413
81.23499970219534
80.89508911178378
81.05713909100288
80.71168037168995
80.49692055542009
81.04966667225067
80.48452293585564
81.04729614476598
82.03887882706348
81.3420639269165
81.39789835046358
81.2584846889739
79.79597423814103
79.41149408358561
78.76296268712196
78.73345980665822
79.37743987218727
80.60109857494349
80.10044507251622
78.80678720135664
77.23259032635431
75.90337200051005
75.14961653691186
75.34192622887174
74.78172419578014
74.04011538884347
74.73250752115172
75.04124478573956
75.76024724243545
76.4025806582037
76.32226826373699
76.7043962763019
76.90158668527289
75.79790825626034
74.74403440160548
73.69656429156082
73.26343836193757
73.32107929303652
73.45445609863789
73.29118770854353
73.69594341070481
73.75308373147415
74.4205260438377
74.97443080317584
76.09507883485175
76.21346659696965
77.24714521557834
77.60298383946991
77.6469889163708
77.71971364861247
77.56939955298434
77.28010307052648
77.8144805272016
78.37799703148774
78.75661047066043
79.84881729478982
79.6237854715022
80.23534800641951
81.09690551695361
81.16561589783882
81.30618639844127
81.5418963349222
81.65125912925319
81.60257257800129
82.41358835761613
82.1809115685007
81.35541450481665
79.46575694907611
77.95875884037086
78.27324191816854
78.7231232233715
79.30730851689812
77.79995178910022
76.57165312271525
76.11666823999879
76.52841431483705
77.58935883531191
77.62163840803511
77.69452539851429
77.47936233119476
77.40684308394458
77.40760958802329
76.93189744188695
76.73806463928065
76.43060613407705
75.92193905915218
75.91531403191115
76.15841454821688
76.48947424440216
77.13319313846114
77.21393339480707
76.93364767448696
76.68409039861947
77.06715563255825
77.49354678752677
77.63853041501169
78.5406639641854
79.29746228575715
79.33312039473034
79.42188122941835
78.98758869720515
79.06294118234419
79.92788314015985
81.02925835227188
82.2437630278785
82.98165681464538
82.15024831222304
81.49643507860878
81.5308605180919
81.03615573908996
81.30256805409978
80.79315343638845
80.27226580820755
80.54358337408368
80.32179310880889
80.5740048673288
81.38829999786718
81.70782172960028
81.42574619682927
81.11152407266258
80.44822653929123
79.5621888133152
79.22658818952355
79.47405698851775
79.39702869329521
80.71134065055087
80.82155856947807
79.56585484793736
77.04615145189808
74.73439928499346
73.6666645958536
74.04744557794392
76.63147456521251
79.52057632681289
82.57774942676377
84.82457224157078
86.92140645779862
88.8169249514252
89.96193775415279
89.97719101851463
89.06909126530337
88.31493772510012
87.20472860981951
87.03882440593752
87.29375384954541
88.1204994036575
88.92138895634879
89.49055540426657
90.2456768553105
91.15390047728414
92.38943235848575
92.72282825305149
92.40754582890979
91.67094575159244
91.40667514085759
91.77664656871015
92.74770648156594
93.37296867242644
93.4289943293577
93.41018204544474
93.35391168418296
93.42171911740913
93.71808583612791
94.05444632437145
94.47808778736528
94.58341349422132
94.43445852712294
94.03180626388225
93.00154919543891
92.04711711532774
89.44749685994678
86.21228298150346
83.24883055543397
78.04639626230805
75.45972565977827
75.67981700689351
77.97474340527404
80.0916536722332
79.71942081951809
78.31124614636713
78.27273060402075
79.934316073777
81.55162485427743
81.2255845311362
78.85728133281266
75.9163940948315
73.06397003592153
70.40969530464761
68.49700994079879
69.32858669351748
71.04448665855182
72.98484048205992
72.49070865144465
71.88172360372151
71.68530460286654
72.51274017050862
74.78544835694447
76.07821631241838
75.98283703548691
76.01695286482385
77.04149680783193
78.0116148133249
79.57707833406988
80.07570220157729
81.33088309876248
82.66521511683348
84.12626194057265
84.73824044700068
83.34129338340499
82.22880397562794
81.83522945824997
81.43885858299429
81.0105545846753
79.67235211336475
78.17767856389581
77.89877664132024
77.80190506337446
78.29302626107349
78.34541622220873
78.26887975272984
79.26127601471337
80.35200910590551
82.14733142572871
83.4743163017311
84.31222680059564
83.91765053327816
81.57453323366765
79.83661693054124
78.2365461120859
78.26579872818135
79.14637131625793
80.64842738831791
81.74102593149665
82.6513667483135
82.44436044714057
81.65250342609265
80.51815295533494
81.05600596904502
81.2132704234504
81.89160861792354
83.45156217665192
85.60455894272052
87.03323651049426
88.71007447624594
90.48543062993623
91.22259945715305
92.39568198021588
92.39776991718814
89.35793512676717
90.625399640482
89.79148028194899
89.4885298080459
88.86424980148227
89.37092416899078
89.81815685038724
90.39249591887605
90.02865413771435
90.362921686792
90.64686105289405
90.9178174194508
91.860291878542
93.33043175774087
95.13784992487744
96.59062593682914
97.45032606881144
97.32036973925285
96.75398364094012
96.10703086777649
95.6453405659053
95.60901844054207
95.74222614611408
95.12416443346761
96.31558760438372
95.1045942725476
94.86593529003602
95.83778874978812
95.32528311555501
96.32301199639443
97.14845956936266
97.36299102329734
96.66204719472573
94.95161678360256
92.86149590016477
92.37581111236737
92.45077016634725
92.18577380979622
91.66391941767974
90.20935702853427
89.69890098564862
90.2090377627661
90.93140095826065
91.19401362795941
90.3189498051531
88.5789056913444
87.90524017231806
86.71877149272758
86.28541565763182
86.49756351607742
86.75972501547835
87.027444241052
87.0900041629829
86.83271478233587
86.27149933527832
86.20427995965943
85.8762227300223
85.22622998257687
85.44446720672279
85.7494571983335
86.7045726303338
87.7818675701611
88.13415340986137
88.15408143879561
88.08102679693121
87.78153942437947
88.07182016567089
88.92719079827742
88.99664508605792
89.03188048639086
87.85592921822018
86.2165496812238
85.64989654391897
86.06660824417226
87.68388607985601
89.4613337350492
90.6522852817109
90.30975828051567
90.08283469727344
90.17428214798102
90.69801386016671
92.20580865415839
93.28391427544993
93.83035213421034
93.20927386762877
92.2010258003415
91.50476879540514
91.24211092289151
92.30945645225248
93.65534568725509
94.57915465211754
95.17135416180237
94.95924050619897
94.58380689200914
94.52665724420658
94.40933450259594
94.04909080303649
93.75092802783958
93.16679507291262
92.66971410504154
92.6507465913302
92.07480196398365
90.80294521650794
89.17140737756588
86.57791657594414
84.52174731415616
83.68804745464044
83.77645539108804
84.89887644203267
84.05578879212389
82.86147987131373
81.63805091131545
80.49697040688876
79.6040125567501
79.72385172732056
81.00634637346623
82.36123319203573
84.09508120388163
83.56878049345008
82.40308472700815
81.55591740157995
80.28627328176687
80.21954759220736
78.73586519170416
76.95396699312374
76.19801589493828
76.20579884862849
76.48682192376921
76.41095605006548
76.8121075651219
78.28285456483059
79.15369749453747
81.30549333713176
80.64912163865283
80.9825610991294
79.97614484646222
79.86488673207072
80.75590703337983
80.56023871645648
81.92113263694715
81.78374641934026
82.21565271982936
81.96594539292437
81.65395052689495
82.58147801188042
84.23409612644438
85.4296113702342
84.79464977339843
84.12478023383127
82.30673149677372
81.60394084642216
80.8183832000089
80.50436934690671
79.29348791575255
79.18790344616808
78.31472570236181
78.04868890371907
77.04144744533976
77.48774835960349
77.8129990637451
78.378700181002
78.82704266240229
79.26996060580828
79.89289841564553
80.45433112759486
80.98603876354909
80.795653770003
80.73067890830092
80.7504036638216
80.86864353850447
81.42846004565246
81.54125317026879
81.4949005637415
81.30092250953273
80.98343307806466
80.64273145201145
81.3067272781129
81.97092794066357
82.42806182331948
81.88629697247754
81.04694611481237
80.86222940573627
80.98645719631423
80.75748648040175
80.67511482408572
80.675817630054
81.88344317874184
82.43666666518536
82.76918243024416
82.58635030360458
82.60979828161538
83.66515220745069
84.82204462797304
85.25471976917873
84.64101759041908
84.65236832694491
84.90326124085651
85.25177586489977
85.70933821788307
