73.41463469471395
78.43265402408036
82.37411922158908
86.7224771324636
88.83390964167408
91.62616005240096
91.93833848554574
91.8710390635719
90.70130070752197
87.64084253153217
86.43218584984423
85.56084503406568
88.55425672577219
89.74412056355142
88.92412261124862
83.62951141087903
76.63250783293677
74.22802321026109
73.26580602321384
71.73267813633638
70.08762914504399
68.18033796036354
67.97058666547034
67.7745749691795
66.82805756752656
67.89889780216734
67.82520079828936
69.78984466582557
71.71724557784647
68.93467450115212
66.08775023740051
64.55541057363962
58.2500256951007
59.72683309552483
58.97392237807679
59.75157079351119
60.644186794186
58.43100417352344
57.92103611711597
54.70648694423327
54.716037073105205
57.4806676265799
61.11744923157651
62.97409348361872
63.94434841379136
62.64181304544784
60.28065742324266
59.60862273661587
59.311101726327514
61.22271976311366
63.80724032461476
64.02214873109203
63.45049004276126
60.85201061421098
57.60079680232396
57.99841289286729
56.53581338205574
55.67796592952907
55.479288559668426
55.13152175726612
56.66698956414962
57.56629748725404
60.48710228244631
62.02250648389221
62.546150098271575
60.912617966157335
59.723725057973006
57.94234309243628
58.95514771908261
58.48183706217615
58.24695787582748
58.83879370721274
58.18535366357069
58.21826897248085
59.31755719011427
58.51043250653292
59.91954686988685
60.152926732117905
59.49846644764404
59.56013228096693
58.32170997426003
59.010173854342334
58.307588099506894
59.5794680521312
61.08803560999049
65.02628054520133
63.92830934438902
63.609217584860815
58.98148008035165
56.949157424069945
55.794456033457976
56.89942363267892
56.8888589745607
57.79097421087831
57.44698720047272
57.48398586852066
57.40851729039066
57.412306415360796
57.54478618643481
57.373739950527714
58.708855350402466
58.04698946407355
59.850065552489696
59.154777381835615
60.17817438801463
59.917746615819276
61.077350546102714
64.30257033300687
64.40565031082427
66.27102648866625
62.89327992029719
62.28605655704782
67.96534677299871
68.00466254265406
68.15709393712908
65.36285172532448
58.333556545180656
59.82179033857922
59.519022985887126
61.13357445793649
60.310743354159605
60.23737681161652
60.682575240703024
59.627084655568055
60.327752293068436
58.482270388083805
58.832207882082066
58.37343243751784
60.34340746434501
60.8415196515182
60.901256562655185
61.234868450610975
59.283981366156404
59.3331347932651
58.108029823614785
58.844840310835195
62.79291543463825
63.3532281410342
64.55887183556696
62.02499709068702
61.2062120831015
61.80264197028056
60.56460483081462
61.14013390483832
59.044744616539
59.78453633800552
59.305772445812714
59.863183465139116
62.285478800283876
62.650116760456925
63.86225318649868
63.755147103864196
61.75357564783283
61.5567407643263
59.109290375126136
59.22758234208846
59.57223578643935
59.290480056917026
60.098303847134595
58.573683112602
58.105362605516014
58.90805762700361
59.58124953310764
59.95782715103196
60.661705091595245
59.88184769409079
61.39646857674729
62.13056414306621
61.88371643430359
62.94398446461524
64.51333768862126
65.13239736485262
64.57613609982468
61.59612674892094
58.23919615755542
58.21347038407852
59.406668129273044
60.982699842186946
63.333588554779986
62.54798914424055
61.860342763086074
60.54744941984537
66.32974613222144
70.7420822972398
73.5571882430642
75.43926386603776
73.089596215717
69.44008813353756
68.68325257679844
62.603644953051614
62.92129758881822
62.10412188856604
63.06957725507011
63.548922002727345
62.83434275496711
63.02121359436153
61.80184762147678
61.90693427821497
62.09710741970612
60.93165670152991
60.852121098890485
60.575930609176716
61.82571637894926
62.687040272851014
64.25121180714898
62.67189790680465
62.186844523057474
59.95625313887793
59.942694676822256
58.676969284373435
59.23750593017531
58.55140513693124
60.04760804903909
60.74631893176483
62.895609295723595
66.78868888450467
70.45803397332458
72.27095725380394
68.76892418870209
66.71998145701784
62.66958600159306
62.53873476990352
60.53985459598522
59.77887475976426
60.41960378076012
63.36489941320125
64.15255616854053
63.993345691386665
61.48900856881014
60.139092276470556
59.87978944181487
61.222899301792
61.666709351090894
62.32099016479286
61.82324499649278
61.708264450548825
61.81876865330755
62.634378500813526
64.4185601937898
64.86467967702217
65.15885629762208
62.81617871188627
62.819987511810986
61.54833007233077
62.05057059272012
60.24589058782745
60.25286061923077
59.24288919296646
58.976872018150566
58.36672675798916
57.88592821231448
58.30568305520491
58.826025163573206
60.230509601432495
59.08689330436351
59.80861248907099
58.073121687389005
59.60909238654579
59.49622843827128
61.50026731721476
64.47927517135308
64.22508608249605
65.20595995977736
62.26785450394761
59.90299567685607
60.212538101297426
59.385143122254036
60.499350319961714
62.085502580673015
61.629437338832496
62.256086526072394
62.44627476444445
65.85946502674302
66.47764143267098
66.82339096608239
66.02652565633102
65.6369131763694
67.6242018817772
68.44373772836481
69.53438143278177
70.42095447442517
68.81916650248706
68.82572267706709
65.5700442169506
65.8554784853228
65.56168414248819
62.48983118979571
62.964254325130604
59.68322910981338
61.82917523904451
62.14575642718308
62.24863990397636
63.70964365942771
62.28127425415822
62.56302741467425
63.685556562854245
67.51874533683358
68.6906821233774
68.93776634453468
69.40351566425676
70.66594662329334
69.05566445485755
65.46592407117127
58.126177548362605
58.40801052166488
62.28158563936983
63.05439443011514
63.08321062139748
62.38399236748985
61.55156420295578
62.90374594196167
66.01350771300501
67.03947858140894
68.09065915281457
67.19428829633671
68.2461648475542
68.7423433971093
67.682789146781
63.57519248477711
60.98438865630822
60.70098882754903
64.19171637885819
66.6012688071863
70.25147947780026
72.08695026603831
73.70958314779368
77.97894287191556
80.01582428793591
84.73878594033879
89.78698114516494
94.67676368613496
98.61744966170232
100.81829724794967
95.33784794417437
87.38872041441226
72.66139377502304
61.802663774254874
61.56206438688009
64.24686327597462
66.75507669911788
71.92412385446136
74.85552138678153
78.54363851108282
79.77036741141549
80.78881361715078
82.21350365274658
84.20815836410216
84.83021386388569
84.22392296187466
84.26145641491992
84.615968906272
86.67387739804471
88.26120630468097
87.916115436961
88.84329880902403
89.69926286992371
93.49800180903082
96.13532308055306
99.07450508056
101.87943399957271
103.87033205125239
101.78736065612155
97.38170901599904
91.46161166837601
87.87957516588254
90.10597119730467
93.18310303354366
94.7565666430354
96.43410896957998
97.29774866748085
99.26078396294423
100.83461369341097
101.06860143233452
101.84196884783044
102.24265394511917
100.70609133876613
99.2273903754525
97.9733206917976
97.12529357652552
98.06027316098711
98.78769821639706
99.64914541860031
99.02656355599407
98.89114744316258
97.77969451652541
97.74346266190373
98.84647911229102
100.74312347677397
104.09361760559061
103.80792828148532
100.08144344703298
97.01902349911278
93.06850881293923
93.93614781561615
96.57897863241037
98.05278183384446
99.84759994800889
103.60378191140789
107.67184938533902
111.53931003309613
115.05653602853197
116.65053687616977
117.85781025615562
118.79544714630156
120.94779892175649
122.44532657545321
123.89532706446842
125.01829980652226
125.84267751036106
126.44760018970902
127.1640582714312
128.11267419669707
128.28281923342075
128.7432686211123
129.22009383141048
130.3558874993426
131.93770529392455
134.0226717770625
136.3390161178093
137.7995957660562
139.27433829642928
139.85272621967113
139.7623389177038
139.0580414099373
138.00659282855258
136.95097101691158
136.06646174090375
135.3859944573472
135.51783814819507
135.7498041479909
136.22100071557097
136.73473200387855
137.34399434477095
138.76585750181965
139.9037238963005
140.2679595084968
140.29173868915598
140.1428660956397
140.26657948743272
140.9524904722599
141.7299087480317
142.21834315639296
142.88974705133904
143.21482193562431
143.37441943300547
143.05502829765226
142.5677927918224
142.4056282407689
142.72997774156624
142.89012945539025
142.86340598233912
142.64687248220557
142.56486343326705
142.80902369519174
143.45733493554192
143.72914075130757
144.02971492965887
144.20124923687962
144.58490993001897
145.77028243482778
147.6156858141231
149.34578501199726
149.51296407995974
148.64889512861092
146.2787480575262
143.2443623545374
140.81618185811098
138.87313675817217
137.87074850547472
137.78938509478013
137.37464632383384
135.7625493640819
133.70634165969258
130.93257343942616
128.99008324607715
127.76760772191783
127.7129034565858
127.21828255705371
126.43237247204475
125.01372549636764
122.85996088411851
119.63763589322282
117.3345674113012
115.45783135602939
114.77690360968656
114.86473672319617
113.59408456589962
112.33169257215131
112.41913161933145
112.37694988079367
112.46541184580852
113.24852598560224
112.63986784584765
111.91018687633452
111.41332326900003
110.96806854666904
110.48041788941822
110.96441459280236
111.29650550436823
110.61451009060382
109.82369609177373
109.94949482475896
110.09487568334579
110.34681843358373
110.23182239670749
108.87678430872246
106.47202077599445
105.82811360603007
106.76169038211765
108.66223418210667
110.69328456223661
110.70079846502459
110.88257577196491
111.77874943247255
113.59291311537525
115.59910516290142
116.28772777134397
116.52539966163172
117.68052927113285
119.21708744631992
121.07834817507447
121.73953314656622
122.08246802915872
121.92215405174815
121.61012406504312
121.6488457384972
121.64898565067831
121.76764379656005
122.29982993868069
123.57770158120411
126.4163918846422
129.3049176711504
132.3953364030278
134.5119194863697
136.20425360775735
136.7641442562839
136.8939317081838
136.94568261382463
136.65547323004716
136.39887181510602
136.3223624741076
136.82537170527448
137.78914829511336
139.08661490369258
139.43994478854478
139.95501045348064
140.50715545820952
141.5726990641579
143.1444783744122
144.67792945130316
146.51421701373894
148.91644729737374
151.24313063742377
153.0175955561544
153.88091602124155
153.9391597024493
153.58600866402435
152.99557451060363
152.9360294133634
152.98215266503172
153.03749738298785
152.89975242552708
152.2416385667897
151.5453074660393
151.2553111741992
151.42858889506613
152.09116688694218
152.26465489079746
152.7600321370227
152.5574131309672
152.5280740156236
153.32544271275987
153.4934813079131
153.3019835041468
152.21610002537378
150.31620585867003
148.72870891539225
147.41309353789524
146.21925045130982
145.31653343411966
143.79257011328363
142.59126090493933
140.62612089597317
138.25816470545934
135.88696846605038
134.21992382840963
132.2028106623753
131.05075655120595
129.864107014496
128.755088594185
127.37395912668825
126.59440978520374
126.35363310122804
126.63875426919353
127.08066685929533
125.89222305786595
125.51453092921423
125.03412916712176
124.93761943496077
125.12983050609432
124.46834388638086
123.09572708993234
122.2059670228658
121.9070072094615
121.06333624927495
120.19768282669074
118.40407099208892
116.06568748856536
116.13241560720138
116.54291294782759
116.51894218921574
116.70923438979747
115.74191682510084
114.94578823674577
114.81128534508436
114.90416244693279
113.85194248304762
111.5226735561068
109.23487021314067
107.11483867231618
108.26538175862592
109.66082581912234
112.44320734140777
115.27661015751174
117.34119454497191
117.77740292822766
116.79298738328785
113.38128298077186
111.5570166763923
110.84233736022419
111.50491707707397
115.56347570006304
117.3601993865237
117.62241878933892
116.4056013247828
114.7066777447875
115.46383170948853
116.32564408904808
117.16027632502248
117.61240896241101
118.79930305121646
119.44523913275319
119.64579421289902
119.98836438681305
118.89260126354843
118.27890245793
117.89564958877878
115.76363325157921
112.82371548267542
110.83660855116052
110.35633602755328
112.04700896524663
114.21867085168681
112.14042053068803
103.9362680509302
95.24143024493782
86.70349045147064
85.89606747773318
93.24850063677785
103.19549859783113
110.78262570737964
115.78980477837838
118.76782509501803
116.41571138263105
109.40327197788808
102.1189189987401
93.93517315843837
93.89639088319917
96.7754637441526
98.0653676819636
96.80521489033318
95.36965113875834
94.81691796090196
94.47385007214234
94.67834548780179
93.7859725482252
92.20499794405778
91.40044797335108
92.55196713303786
94.72148765331208
99.40690001816884
104.02612910163536
109.06471008149566
110.68214027875388
110.8210522766917
110.58123861307476
111.03008780653965
111.28407422319256
109.42725563410731
108.38786405434408
108.25339261385498
110.57001772457868
112.78438437080467
112.65244300393458
112.14972191029956
111.52287794020864
111.04677822056428
110.88227412101793
110.62735252677895
110.45294318051992
111.44588752670607
111.51037691797174
111.96562648505154
113.40048569064432
113.44501586008398
114.91703822115572
114.6149564362249
113.55803321233743
114.20509736042949
114.06695018460844
115.49823961557709
115.46045840762994
113.06998550658355
110.07239101696422
107.30036445433788
108.70521417167379
111.81561106669422
113.81243882743159
111.51396853040478
105.93747344616129
100.45923343593773
99.37922204114766
102.52777596147693
104.97099634769876
105.44322710513227
105.58177805591654
105.22509074496048
104.85454377547323
105.2848928627306
106.64489205920994
105.98322995385257
104.01528597289001
102.15864018484737
102.75962353117954
103.73570431398272
103.62385722989158
101.17807516483509
96.14710960437809
98.64390891413967
101.06902960525025
104.6757009093394
107.44105826773865
108.80852852935028
108.63931089287152
106.3738447679299
103.9592858926481
102.45037079351374
106.02545511564992
110.03316667978382
112.2017663316527
111.00199724596868
105.74330426755385
100.44123018556331
96.60321811520208
98.43821887872845
101.57176542942852
103.63239926763578
106.97288907153046
107.05167823220548
105.03633282155987
105.47936733181831
106.33349971742017
107.73140314415514
108.97036118937866
109.22197708942365
108.20239865212653
105.69121161535347
104.10818462423414
103.91893821898647
107.17820084473234
110.43686166969809
111.03641167258827
107.73221827930512
101.00584506978112
97.10346472405712
97.79913064492598
101.13885221013341
104.6609619363299
107.7100126294051
108.72287129190782
108.30361802704267
105.72879019507091
102.89511299231856
101.09101803377062
102.52818431810321
100.0375499184072
96.38221661527085
93.90264654379699
94.53273704470018
100.80316034439697
105.61360761428222
108.00033032317683
109.24701711106341
107.64626688400736
105.12625287705171
103.3419775299846
103.59837177413671
104.30637445080146
105.29963391609046
106.77250789931676
109.08438951931248
110.91882432240703
110.93767095138652
108.90008963780764
106.56827483048787
107.35315168775979
108.36297219599027
110.4433454962576
112.35389913779635
111.00110518944918
109.90244765338346
107.68140008603648
106.83610586641339
109.03032283446792
112.24305825305848
114.79556602736653
116.10746108184892
115.7131471379049
113.11888166949203
113.63450929611733
114.93281345499027
115.7139031736568
113.72799241138846
108.39740950046387
103.3075715303142
103.47165914464018
107.97557292830385
111.4158450239897
113.05288353871086
112.39982969296709
111.64784439579081
112.81334799588078
114.19278277836729
117.10876316195359
116.56397142641545
114.25162202083511
112.41442790453628
108.7598035952261
110.09467050477816
111.62479725180116
114.01473966843051
115.80936225924994
116.44320548455026
114.76133874639106
111.25054362134087
109.01215518083694
108.40179217227062
109.61260425727767
110.39958489423225
111.41595516214086
112.3873242896559
115.03382809612627
115.31040468093975
115.49546380158498
114.54111666321656
114.07168823387815
116.73209770452206
111.72105152935819
104.34896285479307
95.09389192427028
87.4071064255662
94.52874355910889
102.68790863984992
107.68433761352543
106.89805910807662
103.11599377841107
97.27057774138301
95.5630053637653
96.41803188581434
98.48107419287282
100.88403053185105
102.72420582601478
104.47176560640364
104.3855330238907
104.28957445385416
104.98070870187638
105.57696409313914
105.64219768887655
104.69540695630593
104.60963785634749
107.36236629192891
111.83639034158362
114.32567015908873
113.89983463585924
112.76723874021583
111.82268435453734
112.21944558956442
114.19388457304692
114.97590584485692
112.76163205944647
106.76778345311777
97.36272888039635
91.86831802395282
87.83029199890602
89.87450124040842
90.83552529807409
90.89651201088718
92.39949904202865
94.56262034820212
97.56876358546786
99.20120433283834
101.13107122276608
102.44139314251855
103.21013142414618
103.79272442799096
103.77634492174417
103.89950311563476
104.85035630684605
106.0327193055842
105.96885047697438
106.47662003692102
107.52033100795812
109.0160020309319
109.84900311680728
109.90419565772444
108.23556800860578
107.68677486128787
107.26437672394013
106.51975457850891
105.84706491659405
104.37061587528365
103.5425768208528
103.58276201717257
104.17846099195638
106.50483615465478
109.0091372194172
110.78354386644558
111.21791408171029
111.43175174858011
111.21958536498222
111.52719906326176
112.50631885502568
113.03217781007179
114.2365952590216
115.05516557015156
115.34592169818507
115.07874872385551
113.45004295879053
113.27443905685736
113.64591905745735
114.43011555057389
114.3520261672069
112.08795566228615
110.41079120001291
110.49560979302832
110.88749106984322
109.41229733930079
104.9579239560609
99.41816290074671
97.95051677756838
99.72966012819673
102.19027789071218
103.13910151238657
103.31732925377847
103.57808258951016
105.536509023316
107.14951275941748
109.34435813417032
112.02841429439266
114.43161569684104
116.22774711920061
118.63461703686771
120.7806930953787
122.4276849697852
124.25850438647414
125.71081108096493
126.74356129425021
127.58169087690001
127.67539842974857
126.83000119371495
125.73277815808527
125.38041958131373
124.88823737443049
124.36172871464974
124.56269855547633
125.4707138844021
126.84094801745151
127.77870795800828
127.4025729656473
127.31266579129604
127.21171147975218
127.3345092054189
127.06012757553371
125.04967257859049
123.05109370155573
123.07613204665363
122.99107686402965
121.93724398780267
119.70340553150632
115.89278165150986
114.6094545258901
116.34269161877528
119.72478325913396
124.88346256597615
128.46178138233955
129.89563037099128
129.71857491634952
128.1874984868536
127.18665647857438
126.8211644049224
127.39947623577594
127.07531653121285
126.20552459920475
126.52693284683413
126.15431969301841
125.81387932904782
126.16580265231207
125.11464822396974
123.95777421191026
123.38247657744967
122.36719466166075
123.81649626188624
125.36962512367052
124.50029681119769
122.26620149247434
120.24957530825138
118.92563639216146
118.97477652038683
117.39159693911682
116.71451084625966
116.51312738500468
115.6651190506492
108.92163330650166
100.14412361940471
95.0525433237256
95.95057551150283
104.39631258802062
109.8582620330103
113.40215651586387
112.53664204427614
110.3326240387398
107.43257935306093
104.56132757033565
104.03588198642957
104.320161992267
105.0629805894733
106.51042064852
107.9522395508305
108.46285803865312
109.20555150768966
109.91744280520484
110.7169792254754
111.09694516970752
111.096324681298
111.09804653317381
111.18237444079386
110.69877010468836
108.62993419298702
105.49511487489053
101.55349065760977
99.55962557336157
99.42091518402385
99.49862280776522
100.38914339529165
100.93043855521695
101.56905085857518
103.34740447893861
105.56340732974317
106.72659560680543
109.66029728311194
110.82346929179603
110.45501437378297
107.66067195351206
104.21440777106713
102.61899200408529
103.81501120570789
108.13019841731298
111.67122259244142
114.77621222280933
115.91118899374477
115.5618461854619
114.78015310769715
114.52622136281163
114.70066185938002
114.63626886906714
115.1779355714553
116.38140714664085
118.04962555006726
119.92720778492193
118.9024412501908
116.44883611597966
114.31196986932387
114.58604091750699
118.17216888515884
113.49466644494302
106.18289891848173
98.75415187070494
94.22059479497233
102.45635095277464
109.27793546684484
111.0932284055167
112.267512187213
112.59564219186889
112.98159360284968
112.80939907336581
112.47778023140235
111.03256003012275
110.15738402402361
109.48912713557613
108.52284926906596
107.95103277147992
107.49674489881669
108.31444237840135
109.4836990321929
110.83096086416315
111.86611860903315
112.65260774096357
112.89141921461808
112.52666214864703
112.18578681340149
112.62058375521113
112.19093044007582
112.12964921013614
112.99432105569481
113.51069194704516
114.4809283475128
114.52336866581518
113.77064449450249
113.34888845288924
113.28160151352576
113.13692819654794
113.44418521227534
113.84678945056508
115.05427453686416
116.4129527058766
116.87830225416616
116.9156484282471
116.18927618612149
115.3556990275674
114.78762569080727
114.5386860680763
114.83238423343576
115.24957230126442
115.50066964518827
115.86086593188159
116.03612676596799
116.78716767522756
118.10563719933525
119.11145245715282
119.09987310810946
119.23521608955888
118.70577817708242
118.4640499256888
118.80083732478583
118.70979762056562
119.30978168200325
119.55227278741155
119.59773845315588
120.22478950387547
121.1727051344328
122.35038213697717
123.7535283908692
125.17344966734824
126.81419110645695
129.0334294464021
130.87398721077147
133.31898033579589
135.6183665011892
138.42105310625246
141.22700759490257
143.48139229295535
145.09312790011762
146.6318007665158
147.67784414386367
148.21036776378003
148.41421367760688
148.44303725044307
148.50131085316988
148.52361505633993
148.60594132205404
148.66173730187887
148.8012273263494
149.07960957588156
149.1900144463136
149.18981730219676
149.2735070920424
149.32910173298376
149.6096632491596
149.44327153206092
149.00004990312337
148.6937717610621
148.24778761701165
148.1929732517326
148.38531631794172
148.38570438787872
148.0571777771636
147.55008379546865
147.06077048562577
146.74322147467555
146.74443750973705
146.85827175399115
146.77691463848092
146.50963945139392
145.84385390268224
145.22602769166164
144.23142546558097
143.27387480508116
142.72739138969644
142.53721971558613
142.26981054945128
142.00310284321642
141.81640943618402
141.39116074668573
140.97278294724308
140.21915430291475
139.32770534240788
138.54975659810412
137.79481239024287
137.5025424913274
137.29445619600526
137.0556340626344
136.79373941966583
136.90518262774964
137.32383558766864
137.77214131486758
138.14433250657854
138.08923445584983
137.81709649671825
137.5856708635623
137.1055621647657
136.73542360608323
136.7888807167136
136.91952053017195
137.06171196734496
136.821667602018
135.84044332915437
134.58603577777097
133.60520712040605
133.1646311548249
132.86830601171744
132.4013653441201
132.1070778792803
131.74590730532506
131.61944960157814
131.46187823788435
131.7472585689459
131.963558395846
132.66309529180515
133.54439890974626
133.99237004419072
134.54241968869906
135.10877015150402
136.36762052449342
137.97947868632497
140.5507069768554
142.5350075972439
145.1026537373751
147.7366076507323
150.7138398649703
153.10420905435404
155.45923857599786
157.50809579664525
158.89054147337808
159.55334371859732
160.40243067767915
161.2132679834927
162.00076453810115
162.84300159058316
163.54302508967328
164.2880023952137
165.21354628344702
166.50101709824943
167.4988061297518
168.23846913999864
169.10806625547028
168.70908888875098
168.71124161727016
168.55548595712358
168.61458128843967
168.550583411398
168.64872404812334
168.97062077572323
167.84719178047916
168.23796647367604
168.55871142522713
168.99543475577667
170.58284279793136
170.47834192099157
170.46474210004433
170.39648456485665
170.5119140626127
170.64631119423638
170.86045864359667
170.8989708256167
170.92355659701212
170.6716872605016
170.32657091694284
170.1081418243989
169.85626623179377
170.0141253177084
169.9810165826831
170.07850248445513
170.2670267941968
170.47641706854964
170.67629825557728
170.99130618882307
170.93729672559564
171.0850537502389
171.08479101121767
170.8352966005137
170.64000851645383
170.38787954353813
170.206392855068
169.98042253411006
169.60816135841904
169.06986256740402
168.31530860871123
167.6871726803167
166.92162579720048
166.3880515029859
165.67217390339513
164.991325020758
163.94826864068776
163.39983645548386
162.97750561662394
162.67631522962216
162.17012934556178
161.72329661544305
161.29470291234557
160.98319209455818
160.60227186630968
160.2192809294366
159.76437947023834
159.12937292057023
158.61744448149457
157.6968546640272
156.76441574771013
155.16560334048748
153.14439920715247
151.22522689572793
149.87705945207435
149.8751960805399
150.01629328655815
149.90646333404032
149.21615999789142
148.23218646161232
148.11878800400632
148.42194055477074
148.1269943239001
146.84284555214694
145.48886742907482
144.4446650246142
144.1412575902781
143.33965843082035
141.81933123497623
140.47027813406194
139.38480953723035
139.15635686389166
139.20254818408637
138.70244542145394
137.6513941469636
136.85671887788453
136.19252196967446
136.319779072496
137.1848029852373
138.0095942289517
138.8846190431126
139.43195547566634
139.2603434470598
138.65133340021504
138.0558885862721
138.6283864315505
139.53073907904815
140.20504350537058
140.21764148326517
139.7913644266639
139.21125582277224
139.12689596916113
139.40115433938632
139.98268110959972
138.70443611216902
136.71951486400908
134.6775937419637
132.04194796005007
131.2070592453943
131.15796629088698
129.62450437298781
128.47147631813516
126.25918812440511
122.82394674056454
120.55669406514862
118.39906965454375
118.19012960627111
120.16602619988738
122.70777211353384
123.48692796625916
122.01969213539802
118.88416798698555
115.45650269560758
114.77515536443136
116.12413262855283
118.43106511868193
121.35264496472911
123.58464044653412
125.06717012012564
125.7065473850675
125.88073685933432
126.7902817658284
127.98246753563708
129.17502009058109
130.54892436941958
131.6774578318472
132.90811323317521
133.89386598444065
134.5685274828437
135.12956524475854
135.96371557066243
136.6978477756727
137.28780970693788
137.31194544989148
136.50323038446913
136.4767588508219
136.4501148641868
136.78915778531254
137.3369136567137
137.46944718161507
137.78470718171525
138.43752276896578
139.93010657344018
141.41530893332174
142.35444195266507
142.35231484997087
141.2491989813381
139.78691134943085
139.33067110485058
139.08256570010064
138.50462101450128
136.79671880707522
134.32907684317928
131.78073995249986
130.99980730968346
131.05921429726075
132.33983958581965
132.67602127360914
132.65291944600918
132.75079769174295
131.92674646810013
131.93734783551176
131.1627907759954
130.3755758267341
129.23683653317113
128.08600419294638
127.69223298565217
127.91325663447167
129.05303020991914
129.8429660005321
129.81968809258467
128.9355818003371
128.4624285104888
128.51480387512524
128.73827892026708
129.31616711126625
129.51934097729142
130.24842501856986
131.21461880888393
131.43948781011426
130.71754435060026
130.08985318867823
130.3454367407323
131.12635002802932
132.2447198576998
132.69693021000333
132.69616476821312
132.39074411122803
132.399200920425
132.0315634828283
131.15299495116696
130.67221233415702
130.53475032772266
130.86788947767448
130.72543913554927
129.83995368413167
128.66711473456166
127.76401482790394
128.1286466116209
127.84385242467641
127.0747966017233
125.46099050245743
124.72331398264629
125.32526067636935
126.69015425908319
128.0291988966164
128.66880691832716
128.3998668769231
128.32400131068925
128.49532034692072
128.44754220811478
127.75017772063813
126.65095069928743
124.50156276977182
123.62861878370883
123.95135134545413
125.44632389197096
127.67044447301967
128.5322592628967
128.82732813241478
128.42827201956686
128.10766846788889
127.7262982301468
127.36326571223361
126.27960182940211
125.75600208398818
126.08731597500172
126.71686392641662
128.06985911436655
128.8434684340554
129.0287943375297
128.9176500254997
128.76699110136778
129.31429074544252
129.69057307030585
129.1793465435266
127.9754197932165
125.95151327858288
124.91895998744724
125.35003121794672
126.18640721803409
126.95631094748349
127.25938860071142
126.70535785441797
125.9444142579508
125.29355058401174
124.80063338949492
124.11764858222337
123.80050996386575
123.9901620388084
123.8978423780852
123.64970516285442
123.46936093740723
123.0760733262446
123.36791099154328
123.97922115105027
125.49040564199333
126.93931884047117
128.2210202683291
128.99299579426247
128.91628608129008
128.8404262677934
129.45243465627166
131.08842710024575
133.27369833807177
134.42760490947163
134.57495462500074
134.4236416244204
134.24439744920085
135.22355872764754
136.14115407136563
137.534502087971
139.1609609186071
139.8392693058944
138.0197537059839
133.99073177068257
128.96054047322997
125.41236094730723
125.2766463651839
125.50441367291269
125.38903412542318
124.8012871470287
124.2218067564997
123.43954401584314
120.29874475320258
117.00130522624522
113.54306389662047
109.45132875841786
107.33498743379839
104.57308938262199
102.67505123617133
101.7361193532829
101.66380966993759
103.5707016363478
107.43641993280261
108.69174515719335
108.74248271991665
105.69454813428158
102.11135179120859
101.64363119203877
104.67609028256757
109.74879720518496
115.6684754845986
116.96652946622547
114.73285920406666
110.87978237976733
106.2449140246997
107.54933115943746
111.39623995141999
115.20135622754417
117.35233236101486
118.77316031449973
119.39790975233976
119.48604213637
119.66558245751175
118.38385424148488
117.83576766739299
119.00317745258334
119.74788810816513
120.05684262312609
118.69785909626874
116.33573371748666
115.13119003454472
115.6524879916599
117.49153526556867
116.85180844872397
114.16852193980402
111.0635595458482
108.45943142725149
109.10138315720506
110.63099292287713
110.58372901952062
110.80869960175026
110.24578832225693
109.08122637251992
109.28266159456486
110.34812497463261
111.46841121156326
112.53883833605418
112.45213704785526
112.43316286327367
111.48104059621082
108.26586953161524
106.89766785800872
105.65398271032959
107.48308949197933
109.33675063429321
109.07836923148388
106.59768574082466
104.6627940787584
103.12546808816705
104.50720957656479
110.125560050333
116.71152510875864
120.6226256508833
122.55266148695026
116.94982927816122
110.20322561545625
106.91787177048988
106.36382933763167
111.47799348664363
113.07294043058188
113.63676817350431
114.40261382489888
116.34758897306683
117.54261755531914
117.51574078968487
116.23205282799391
114.36899849902477
112.42694752586554
107.21324913513469
102.67598518748981
100.00068399887031
98.9911822242588
101.06092513850848
103.01776746295594
104.34278982150727
105.71604401031942
104.79880841422101
102.53970701306865
101.9921272815558
105.84887676745585
112.01663221528028
115.77717057059975
119.1206621508929
117.80161343271489
114.52550556036213
111.78461363168631
107.68380587366096
105.52919788869349
103.88723000116944
104.62388555837396
109.19239356143125
114.8342012010209
118.4131590566341
118.69099754084293
117.22962297719586
113.89170174296065
110.69492728965125
108.90892367065621
106.84520386801297
104.2757893824278
100.59161085993888
96.3203156932412
92.42378546177315
90.70593863523095
92.24559261829556
93.89525997290899
95.61208084157565
98.7379449964841
101.1989990033461
103.59321172300685
104.9592685885049
105.69799291956352
106.37680186829428
106.27634874385126
106.26132069281287
105.1517432669121
102.15458621693527
99.9065790418751
97.70620524772609
98.13910565532132
99.51263472497749
101.93074852925997
104.9477780381497
107.32033158724545
108.89066112640774
108.08787260643618
105.80356684063473
103.23093262906924
100.40406506036099
99.07685794494574
98.21408671756315
97.35587963933112
97.2552604421408
96.56962063773061
96.35652534339356
96.59392099317552
97.64987549506934
99.48083689068918
101.66643566007114
102.9814547959127
103.07666883260558
102.55746364295453
102.66694976459577
103.80377452192765
105.92348295035286
106.49281085476217
104.29378121840955
103.01945042210748
101.37670744872591
102.07261853102892
102.95375622012908
102.43418675438132
102.83010676609992
103.97093336215374
104.60927339214389
102.41885880473482
98.00082557782912
95.49422828482996
96.04194367702875
99.07241794144988
98.26328595030077
94.40420239776087
91.38946122370231
93.01262594924957
96.21520361997392
98.99812753808722
101.55730405565507
103.55952686490993
103.28353097335379
101.62081715036858
98.99455624235354
95.88904422907872
96.34599255717605
96.94720268505603
97.09608425462609
99.19746269844494
103.41713206490067
108.5555490258811
111.49507255884797
107.18452279258494
100.83912556149859
94.04263808227351
90.092864210392
93.54755514953541
98.480483073973
100.91036110786114
102.48196372645803
103.46358705547547
103.56386630350927
104.68648138380428
105.9440793877862
100.7311818289286
95.69639883947059
91.3179982613436
93.15799001536766
97.79582034152297
99.60076112492999
99.29085042464631
97.80633928326029
98.81503002514022
100.54829984979371
99.75953146431397
97.95842274566145
95.8241159107093
93.73085974339114
93.42555139104392
92.51666090063992
91.09768415591233
90.05693893961998
90.39396921295598
90.91955285967207
90.43859865960214
91.140179703552
94.71763399519563
98.8875308047854
101.52721037601556
100.31340581184678
97.70395540653283
92.699116386124
91.24416002836507
92.5421539580137
91.69539392939033
90.95102602458927
88.79431985443438
88.23769263045682
89.9367614258039
91.92748261621253
91.14236914306382
91.33640932675634
92.90924527290831
94.98809002779849
95.59708049314486
95.73299994282036
95.41869106422202
97.7161156402169
101.15916774053078
101.31196707839872
97.27307280852064
93.94274253528756
88.98495109950039
90.00780133486957
93.19634503569927
95.45680045670287
98.54773771376382
100.81745446465648
100.01240412642116
97.85493532871675
95.23341749893086
94.22603813129405
95.0737729897806
95.29240579246108
96.53593743691106
97.06100679940846
97.83595835946251
99.27026302583481
99.88236292274753
100.25344388019109
100.71105260560823
102.40755470898908
101.38099878292094
99.97141913932144
98.67273892917022
98.60260209440344
100.62520275630871
102.51715687144741
103.67638582627849
104.90932342459958
106.28791375823587
106.45001463314355
105.18516236852065
104.14206250962252
103.37537357323048
102.93149850350893
101.50351926463269
100.22731640931212
100.85275960604535
103.28742791988294
102.43609758992238
98.19242805134637
94.52247708384063
91.60312597333744
96.04611827945877
101.60228599479166
104.61884477951138
106.73447739880467
107.25898932307952
105.94468650023526
104.11659102766583
103.13185018433036
104.19885197096795
105.17862100234886
105.31149992811515
105.55936398321666
106.10460849270251
106.63974551071325
106.38144700797359
105.71728446602313
104.26835316193485
103.5839362070911
105.13302950335145
107.45584337191083
109.25754035287554
106.97551313308192
101.67489655147455
98.53061688669676
96.7759745746573
100.02021706202667
103.5530714580867
103.77856324094233
104.70714064538905
106.20746355787033
107.7764338983217
106.87377611487219
103.85436020540448
97.89056369803177
95.21921840529838
97.81297620564055
102.50135905646306
104.502512288705
102.80100566031034
97.23609947538836
91.85442560897697
88.84159366888827
87.93512539470359
93.5675677755271
97.67360199936233
99.7342119161397
98.56273662005975
96.55792154617575
93.7039046002248
94.70654829458194
97.8421284085062
101.18552133409365
103.04545231150303
104.43590650582351
104.30182834863123
103.91075388276023
104.03354170912733
102.47106897928315
101.79989813771653
103.42345018378776
105.85559279718667
108.3784257397652
105.02079230489247
99.17249796386882
94.26749711233072
92.10812745368561
98.08804865484325
103.88049777874247
104.616884233922
103.12966231963091
101.68314760152508
97.32869278762395
94.95369626344313
90.42619243344178
87.18512452516269
89.21664160908469
95.14136453541597
98.45508540143283
98.21482239797142
95.99705474968717
96.25277389384081
96.69223325941994
98.39403570112187
100.50366843576396
101.3404520286923
102.40568453452612
102.52670378436041
102.01374882551103
101.6977260580831
103.6632399542041
105.496569510649
101.07723915977553
94.91632856045257
88.24208447959417
84.05849576846269
91.09993756732283
95.51306962651807
97.30261201386541
97.30539554334462
98.70733194981482
101.61568474218222
103.27936774010129
101.55280232190825
97.97385002221176
96.92206690209277
97.31036338534399
99.39547799937924
100.6022961048866
101.9930674600959
103.53415418334045
104.63774223403962
104.87648666642895
103.31725097159101
103.0525414456113
101.05453912872645
99.02809553161806
98.52171411101571
98.52560993558058
99.8478213694137
99.35896282117007
96.73512704356939
94.12044829661862
91.8080729350438
90.48633148349994
89.16926365503977
88.49020057670415
89.34092417691663
91.30109431896817
94.10230934602504
96.32059909146103
100.51116673094799
104.85780726154347
106.25061642390006
107.80820756214779
107.23315827499404
106.6966291973317
107.30563260507952
107.94009926308726
108.21678446957333
108.11353056888426
108.53040326567108
109.11716233889584
111.08684385642785
112.20395104641077
111.91683682481684
111.6180975064491
111.0722590885387
112.83406913632459
116.93178015713009
121.36933426580077
124.69388059294045
126.40187042118812
123.62772847482938
119.5515056979225
114.65052828035634
111.34515395052165
113.15011321444317
115.07881990561037
115.85011091881965
114.99781770911372
113.45124016473453
112.99066488786433
114.69089306158784
117.31487789552325
119.26215727896604
120.3140094056316
119.85915787213615
118.90148908469995
117.66893720792815
115.67149649063224
112.83670886904396
111.38026048461587
111.53675253459129
112.83187955378868
113.72857422938742
114.12615259907098
114.96844812616392
116.69781798486915
118.32811963138222
118.31518912231637
115.95610732599289
114.3068169177427
114.68659116029019
116.6829370986763
118.59748346279531
118.63436061557042
117.97662226023164
117.72603749024664
117.48986150576167
116.79876625875299
116.02814046125165
114.35121508393445
114.29948480147429
114.30453246627665
114.02596790775479
114.5434121631255
115.77911174243685
117.57632289563692
117.59861968474095
116.39381695950478
114.8538827163217
114.0176341619376
114.89749647002998
116.29042098100072
116.67411680087712
116.69505409655052
117.0720397048849
117.53772090835577
117.73214289892488
116.99506636544167
115.56413466141296
113.92333437148962
113.65440952361594
115.12786874937215
116.96510835212524
118.56835189517501
119.84683200032615
120.30572841470938
120.77274734499163
121.82045233347831
122.12366060467575
121.82178848197205
121.25870795060389
120.76495116149182
120.78519024450216
120.94631759272507
121.41950176512505
121.61542857217093
122.86274490931238
124.7408814421157
125.81462135576442
126.13810426810741
124.20698469568639
122.01637866700133
121.39307955597768
122.77679817347408
125.11594162255662
128.13869995698903
129.17264322436654
129.60152892723954
128.75983933395284
126.67661483638634
126.8814633513134
127.82212199955097
128.82963737534777
130.769612762596
131.9062975909874
132.7031453015616
133.61700906087924
133.66412382485814
133.13112199974492
131.99984388997822
131.48295383184237
130.8536997406096
130.4554056458773
130.3845413620413
129.96992904551476
129.99390377181348
129.45398911937508
127.44528720800989
125.5742280320395
124.45050261230699
123.96036247442132
123.19157482430111
121.6619134753126
119.7247864061579
119.08762521348831
118.89045861669192
117.85326678587829
116.33049220453475
115.17932089816316
116.58034860219193
119.65699819911714
121.80315206480736
122.6582381865355
122.90181082107102
122.90700544062301
123.57383993565696
125.48704655164188
126.18797411547202
125.32715916055476
123.47435664056162
121.33027273081828
121.1121684117508
123.00903944335457
124.24336922763912
123.43619471528415
121.47603666936244
118.96471351128534
118.26275901167952
119.17910511931905
120.35981676170552
120.24460487020376
120.08242121219172
120.1534797388704
119.8590819663886
120.01849569953596
120.15509656241751
119.94540690832751
119.85513554801378
120.02199284217424
120.30347885383748
120.56283999632849
120.45305074497982
119.94616217581299
119.61579114972226
119.97987504924262
121.00338993341697
121.72648457229981
121.91427031693007
122.57372864367427
122.95501511930803
122.18133930447678
121.71039512235612
121.28362049389816
120.9988703969257
121.99713630804571
122.98648962508099
124.2863829348448
124.79111527384342
124.27048550425327
123.11807198541247
122.54844437059688
123.95446887326125
124.81870053663303
124.06920694079494
122.51269384871563
120.2178087681069
121.16037776174065
123.89696770653947
125.6880160442888
126.6493614625108
126.09614490956264
124.92137366617901
123.01431306846291
120.60344073663899
118.13686292675986
117.4464364473678
118.95654551097054
121.63471458218075
124.95391450553318
127.88608228055013
129.53975389543757
130.24354545171468
129.84754472629527
127.49008107386523
125.83089130279419
124.22279687293948
123.05741298294282
122.8318691781904
122.46041252878257
121.01778761110103
119.3757231236668
118.04415319653899
117.52145954084615
117.32522565670072
116.48089796225432
115.9506262222928
115.35237641224037
114.81295891335823
114.70593146378842
114.34103106198903
114.4326061535641
114.80810384617043
116.06824234280722
116.9917155807429
117.48414131084687
117.27512551367157
112.41320341421192
106.6891135807855
102.10053074095134
100.15525563620004
105.42356442139018
109.71093349365883
112.96416904240948
114.55964823338272
115.92120459556723
115.9023671617158
113.30960887517843
106.61735952801449
98.90188304362482
96.25892086850725
100.2132391817595
106.24722044788405
111.12227162726722
111.76146802515298
111.67210826027552
111.40818337284693
112.02798895826263
113.0225234664907
112.52049431511804
111.96988865801721
112.10806701363914
113.42941213102554
115.17719530026422
114.9856535561933
114.06840147040681
113.18608576166875
112.82843392674194
112.16658844863174
111.3544503231368
110.31112835256071
110.37535361219348
111.69542026683658
111.64938685953747
109.45718351039721
106.53163648794886
105.81636326472936
106.90680488500915
109.8611639164369
112.39079309231606
113.5863215160886
112.8143754581233
111.72285751688557
110.8556099642331
110.05058706933376
110.28635015757948
110.82478006480326
110.84894579115169
111.30746860230487
112.19756775451394
112.45542129538634
112.05890367191716
111.62148172239911
110.85142863322368
110.69322649408386
111.88753825680816
112.67912427989816
114.29235923722479
114.86168766742104
114.12668946619824
112.77644866389133
111.45404553821264
111.64848378606692
111.85155630926195
111.58729147345593
110.94065373165252
110.48020905505814
111.48751624291414
112.96163096706981
113.46557655080555
112.54781932577507
109.2593740914856
106.35022097714901
105.44585978315507
107.91426079114517
110.39798490876305
108.78819353727192
107.01791754604515
104.27566243695455
104.13659152333543
106.88941678244018
109.14019839135776
108.9849722127601
107.35143440471633
104.94444281610623
103.24112462812002
105.21399480683678
108.6315537176451
111.78478498248923
112.73974835994191
111.21497109959209
107.31241455319511
103.08061805695195
99.57423257570078
96.7073597874815
96.43002459920923
98.59042409994525
102.14058640764055
105.4225704411913
107.20985953425695
108.0598319078577
108.83743863971195
110.55812610401334
112.36965212336031
114.67049774331055
115.59869681689374
115.33236670928439
114.73160438099042
114.02543685672875
113.30036299446397
112.69938286260945
111.73903478415365
110.89065700906869
109.97764092903746
109.62928330536566
109.14178717722459
108.02596122799217
106.82903279964346
106.43945234971382
107.49181568992519
109.83948182138819
111.5273732689681
111.98280697969537
112.1123082371151
112.22378027285386
111.419462692718
110.48818388821749
109.74659593772064
110.63510606411471
112.95103526258754
113.66150465779528
112.74414173870761
110.369812856341
108.22458127062426
108.55182474929167
109.45275183731974
109.78241906411144
108.90472116954585
107.57569126349144
106.37646341735753
106.12423988219847
106.9063537015916
107.78789225864249
108.02922342913969
107.42870298324158
106.71015739540093
106.70993181566276
107.88727280817123
109.2145745447352
109.93014455157335
110.11341104107471
109.53728559164307
109.03915127814014
109.3743383558107
109.88711186784907
110.6473387732383
111.9263856211591
110.84208376000694
108.27360052405862
103.14538006051755
99.14391320057116
99.85526772782298
102.73142358674502
108.73930848605511
110.34806112669806
109.37424585898401
106.66668802988364
102.62981590489383
102.92887796394969
105.83870633743797
107.5618640810989
107.20058134357994
105.04352121000358
101.80572105755742
101.33322363410333
103.21685397193393
101.35799082704713
99.39227552211368
98.73902592778485
100.00458488448452
105.09510899668037
108.07465090678923
110.1034989183445
110.68849668572004
107.90809673888293
104.92116140877899
100.97256632312961
100.49090170626859
100.97878327280297
101.12096509018082
99.91103333428389
94.8804563802979
91.53428831028936
90.84860964614246
93.62195070849936
94.67633211106586
94.96403762494684
91.63371985006255
89.09468186871489
89.15668645513215
89.42724796646988
92.14778002457125
95.82589191159025
92.4892832286972
87.69410157439422
83.66933484434428
83.15640168363606
88.6065332754408
92.08190489052515
95.09070046959563
97.85282702826242
100.13413560170245
101.07083441864962
102.72490958807386
100.97452051988928
96.1976949571813
92.79772410118113
85.69505454119272
83.60681733260853
84.9643704826047
88.37186632677061
90.87031660953845
89.80117612699823
88.85166266012337
86.54445661880737
86.88611833893913
89.84283896056435
89.65560325575153
90.09330489971406
92.55205675422182
93.89021195298974
97.97931795295244
97.43705614654665
93.06360349170221
89.20070425584672
85.05929246216076
88.8411993008392
92.39707288584096
96.11976930938789
98.1385234103329
99.46591977343905
99.73755520358903
99.28698712558334
99.24656266231254
99.46492066362279
100.0429205451398
99.96166629445935
98.534805155949
97.07411593849102
93.36478742817485
91.01803137806793
92.25377633184566
95.27599740535123
99.28149257843864
99.08667443493975
95.1013822339254
91.62132193331401
88.28665664877742
92.08487390114935
94.7008325575439
97.69786368526042
97.90250042719303
95.04560788864791
92.9593625336481
91.57895511533037
91.49169708226482
94.18746987448382
95.75501757315392
96.96657830044177
96.14495341003584
91.57500982528548
88.63444555677349
86.69809282570054
89.65983076967989
92.58813782302765
92.14562790350087
91.69240428078788
91.13899461342824
91.57697437897663
94.03785794034017
94.52072590691931
94.14275685242528
94.78347146488899
95.89661121760568
98.8607243242917
100.77842599636959
102.13031200486067
100.65640643300532
98.25172407426402
96.81484129697789
94.63491218224367
97.28647623124493
97.30393734914789
97.11984049120109
94.48321015131337
93.28235230824916
93.24293122590797
88.59085764047273
84.2976130622084
79.62071021595975
75.53226591869355
82.0704083032315
86.14604863810855
90.09832518313613
91.63475663294163
94.54462029357937
95.509299363251
97.43310640207582
96.4321263118182
94.1683889012097
91.85732539724485
90.17178383866359
90.46532636892215
90.88562787261475
93.26850651028356
95.0815194358031
97.40419544750449
97.66408117625717
98.40773726431574
96.31116055963828
93.98992828058539
90.47827635722655
85.2908372057997
85.22912257311793
85.82484814104042
89.63922673215846
91.90945826976476
93.40270866774352
94.63908347636682
96.3280208501659
97.74250444114155
97.42853322007488
96.89896810414412
96.83007194638742
96.9252397799241
95.9321212761095
95.08929398966218
92.8558118894822
91.2082116388118
90.9834643470894
91.62226250875742
94.84028771746965
91.58840723246126
85.22602094493524
76.44808336822815
74.43623271394364
80.97810692599589
85.79980714642417
88.63288854418543
90.55033503779379
92.90156594657277
97.10265517337082
99.33653833492959
97.84811891301507
95.8442437694074
94.2971172541014
97.17955139945866
100.7882916590976
102.08888771453569
100.43432637029402
98.91024249344939
98.03951869793998
100.27039574215269
98.89200786264163
93.2050137904137
87.41238351713895
81.26384101600779
83.72664040000544
85.66538571102402
87.86485892658169
91.86588032721676
95.3061269179927
96.32319282074879
96.93315267268376
94.27845237225387
92.45422520057672
90.89791363773739
91.09531237734603
90.5768540810035
89.45896633359638
87.64206876871532
85.23316553248179
82.7804142861874
81.27143789394532
78.61542174989123
77.34632009394225
80.27283609207706
83.90479145467148
89.17203834482657
92.82151472359696
94.32491365308645
91.90623320502398
88.35132887260819
85.91818556977857
88.83562592889969
91.92276806120123
94.39674479322854
95.53055910405452
92.56090176774607
88.85410275638327
81.709478298784
80.80198318549631
84.47042008833459
88.6882177782051
90.15850211003581
88.09591484140444
87.28323560918501
84.94356341851119
83.52345661688965
83.46887087843803
82.13057295075953
85.42359697211846
89.94691430193963
91.57892863660574
94.1075433335741
96.04410678393991
99.95509166821661
101.48260372613014
96.73816582412678
90.20304450621856
79.21466609479494
76.4059180637878
86.05994194695396
92.94795218684892
97.5607229968512
98.16088260301079
92.54246634260896
85.16927530856577
80.22045501286188
79.80348272820814
84.69602546397866
89.71651298089354
93.50338633219384
96.98743730635057
98.44951956704362
97.1444820696942
93.26419414856683
90.96857746421723
90.8261581200582
93.96633256572444
98.04083045186117
100.08403535017459
101.5342666354962
101.09174303720235
100.88397814790841
100.630362939794
98.3501292175403
96.76688483431049
96.42932860903683
95.1553882085218
94.18122234697029
90.40414469031758
86.76631441071225
86.74805130292795
88.6496645405176
90.96773593165534
91.62499248214557
90.4776792171378
93.20571749437445
93.58078134410235
98.00348917704277
100.50327184290045
96.67533900336416
94.68941093173193
89.66708004125498
91.79165605742247
93.87539287955157
95.38735472703665
93.22887030450217
91.2556952142423
93.60074448174662
91.99370843871198
91.05763083177023
89.06013126464079
85.19835352477892
91.71683268198274
96.40296295086023
100.04243664707467
98.35301524951922
94.65470321594762
92.83727401031419
91.87464532756802
93.68792485198675
95.41660140220095
98.64388226743621
100.03506008893926
99.24454119759298
97.80344773905757
94.46378469318137
91.72797730222642
89.08664715352107
87.13361551222515
89.28175486018073
93.1013705682402
94.63917273396706
95.75822767936079
96.79168431240954
99.35319395507467
100.40238306021087
100.67365786072824
100.7873351410306
102.06674604938532
99.19171905462422
95.11135408383707
89.55769708515294
86.12578401472842
93.02041505473562
97.42831681673805
99.84988287319528
99.05854483368547
95.66396911207084
94.20250202215449
90.44247887232704
92.09577140351944
92.46193246214985
95.1313939807868
97.07821776042033
98.23598543579767
99.40083771095323
98.5757568829735
98.63923239392967
98.51278342267864
96.81049042347284
93.60155722074713
92.69622582639998
92.39816159686018
94.33284126581002
95.59028171718073
95.3134225655863
91.27091937517554
87.3267349615663
86.81030660864698
90.62423819557335
91.32492472539587
88.26214661170988
86.1673690313298
84.04248668763537
85.44057638707353
87.41111885692237
85.99889997986119
85.93677852204237
88.90526378860865
89.88680132012738
90.1478996655333
93.13563171302683
93.40268979148692
93.62889161972966
92.73527727877295
89.67671979191144
93.37015787743691
95.30602533313382
96.06649564461041
94.30249331624056
89.9773833732636
86.89222133103763
85.87886840983883
86.83669854350359
88.13792200013944
91.45970867969481
94.39953628695416
97.7888475922279
98.16752089555081
96.31783094303825
94.62805212257422
92.28204310805152
94.89093543962314
94.74729306666887
91.93877593023184
90.12922540286687
89.33081780530051
92.69807377743062
97.38319913199909
101.83445372584195
100.89453951187005
99.63614866542262
95.76639314013993
91.57729827269095
92.2551141552383
90.01851221781693
90.13651158545156
92.44250696535134
95.1415856671519
96.89197699245219
92.30109169829774
87.89455293936248
85.60255579038443
88.91870344564275
89.78469505819602
88.25846310398222
82.47314650939695
76.4627752284589
78.67183884930098
80.91880591592178
81.15981236071184
82.4086063531876
84.99932441068985
86.74530357709963
86.10655277172707
87.13904008067024
85.65815199631245
84.51144073027787
81.85811261124311
78.87758323729857
81.68316011783703
86.8920196406789
89.9752752267906
91.84197001203046
91.99447539743552
90.31925820505401
91.00085828704988
91.64024007250352
94.26371282921876
97.10905750424295
93.89427492872595
87.90276780498581
82.2268870360343
78.20176406738061
79.69003251872984
80.69392796851676
81.0878966165915
82.97240339182042
87.37585682475927
90.06542846831614
93.8088932951694
96.17514953340581
93.60882234817758
91.1869324715209
89.7856985469175
92.03933940923383
94.83192014776006
92.24557610131416
85.99402532971541
82.22950638696403
86.35784548036965
86.7756891269658
87.16236576203059
84.66239245668041
86.99763666253966
94.25293350970392
99.82395695066829
99.94741469387196
98.44388474724474
96.76437003435406
96.12960854173144
99.22612034960974
97.55770187953487
94.22583003569703
91.08883036310745
87.84543305944129
91.18383980293751
91.90146908069751
92.78779569323024
91.63358512703871
90.23014218353632
91.19754144464152
93.98757638292733
98.62434878357055
100.59814808753599
102.99278048691116
104.91057199819907
106.03371413861085
105.62012882536581
103.84682724273232
102.0735909819506
100.14326663335449
100.10211680609319
99.99971052183217
98.6432520779669
97.10499193404364
97.61663137601289
99.53651994815264
103.48583680766335
105.34139827325978
104.55613952648183
103.16644998084554
103.83306807737598
106.11809745793607
106.3614485014586
105.22741291185454
102.83013411848138
99.92843626425622
99.36264311327204
96.75835681420726
94.53475635998039
91.84907161192815
90.54750422917459
91.01877789052544
89.02589316728103
86.16170394056726
85.4272658240947
88.61756815488303
88.38888942281201
89.67465759300927
85.76391899535282
83.71263986089221
85.91868062387202
86.55575748637321
86.22379692358656
87.53545190609388
87.9801058763778
88.97928990995403
92.39873653902404
93.294485869128
94.27941646949076
95.19685308596202
95.19003187602648
94.58033990492703
93.88132472708226
94.11799181336909
96.22324361653199
99.3043308906731
102.54338150838558
106.68988684869373
105.62941789390523
101.03596033793004
96.37040899472127
90.2405378174153
92.56627358107862
96.33346412398755
94.25661150365367
89.15390452918292
84.95533979020458
84.44175153405455
88.65185900874577
88.70097308320476
86.5902312326528
84.71335797094935
89.32481340136165
93.02087996732108
92.30812522762292
89.86578039505906
88.03369342433402
89.47413546331066
95.54209911227737
98.2686187439068
98.00960056131339
92.86778184439811
87.15261638692728
83.94804075513998
89.36396668513017
96.44386851982968
96.76292459236345
95.74943692213016
92.12994368251091
90.64078471575627
95.0937379887442
99.54191792313605
103.67311263962141
103.56898755876547
99.52209705175271
96.97648853208234
93.1522893465211
96.87787860456814
101.23186001561271
101.27121726603075
100.82706277182
100.56996714475348
102.23648341941063
102.5683632280176
99.67744126407102
96.73969796366141
93.35892941858994
97.27519451832178
99.3574876587515
98.1737952335792
97.22472436815434
98.0127281845348
102.38859430584588
105.36860275045994
104.90899170292816
103.78833519324154
102.87077098318444
101.62823153518349
101.52916757664072
102.13265758191453
106.29897749072249
109.7063942586035
110.6420215336936
106.86789634641369
99.87062316112166
94.7126517212227
91.39582006022191
93.51027887330314
97.25773254160396
102.00325993069767
105.0793198742283
102.39751290254736
98.70815845190243
94.81287340258588
94.78408802683835
99.53456013410346
101.36417091664792
100.92412970815481
100.01012996441544
98.40596603430042
101.6019210975751
103.85305710589961
103.85579936270878
101.69192581505746
95.30499180831536
89.24886433985972
86.79062197271536
89.94460450902687
93.91200941397214
97.60878361680481
99.70648242702184
101.1775620440071
103.02425732421133
106.37066837819086
106.22376379544123
104.12979724628508
102.68674190390341
101.52296005542418
100.33275857342618
95.93744730698268
90.22348955807216
89.00616997078477
93.87372065682001
101.66842355046988
106.17591591968336
106.10474157504665
104.32854733453033
102.33928275778553
100.63003457719331
102.20374467000246
105.59376535748456
107.59744137936462
107.332296597134
104.28989791410025
99.0880782389623
94.18524233383282
92.43343728203702
93.22238033626549
96.87305512446561
98.88135795117455
100.82295097327331
104.21710798482194
106.42527883666638
105.81153719631041
102.9895930090342
100.56865966271108
99.90305095401102
101.38875342875816
103.82229049715403
102.78822106399434
100.48986853910004
99.47736790111114
97.84791074791083
99.3355956887778
100.99994850470767
100.85077199399882
102.74465613066141
105.00092813382291
104.03363285051215
100.77075875189261
97.53980800383185
96.32261705783408
97.26865794629721
96.61237095560477
93.36359411662352
94.00650511187875
96.82366493503537
99.654387316324
102.58130938776597
103.47168677020363
103.31588633326837
102.54774281613787
102.50893047474281
102.01310297431476
104.86469519052548
103.34241964194982
99.1535556192519
95.95526481081494
92.56807739242882
95.40861460310167
97.68090530285171
96.63982368787629
95.54564630388269
96.2536379438156
96.73034445116768
92.89959830550325
87.779214096068
82.38651624631167
79.03712095546597
85.3726165546472
87.02876284538858
89.4689972761127
92.71747546118384
96.41162285975365
101.60935180076528
102.97544776543928
101.96204565822458
100.58348582406911
96.10748210200607
95.15424058991609
96.57709263116897
97.61261194277957
97.1505657694837
96.89966971213603
93.408122715738
93.63571339131336
97.50803406027649
99.70001154794147
98.81426029156033
98.66641509499532
93.92331583250738
87.91715889449985
89.08616446339958
91.19261904856239
95.8482986224181
99.70233783238996
102.53206941653247
103.35862703993264
105.22180729768391
105.97837690928782
103.83363512342875
101.57633253658953
98.5712913282611
97.96454501267094
98.07633971184221
98.19250412143407
98.70114823685329
100.70807056102944
102.25511657849388
101.85298311072765
101.59878072693284
100.29680368578751
101.80397463259675
102.80545587024083
99.75715549136034
97.3268496067597
95.72784694116581
97.57512250250186
98.50216712848503
99.04700223444122
98.02057032764306
97.21871879206613
97.73553919308438
96.49086596978526
96.91377071066337
98.02622550941159
98.90406025953216
97.25931301775398
94.17649740861053
90.72149925036169
88.74458489120526
90.85669896048726
91.66652629328105
93.88541728827413
95.6951188727305
97.69049446560173
99.61046697625187
99.40099082045913
97.73558225069377
93.78286502780985
93.2621760125719
92.89739728157949
92.85579295639685
91.53395929364501
87.18039628359563
85.98530894883051
85.64662158669421
90.65517605793565
95.74186880148487
98.99512240608642
98.51512234429812
96.9590417989255
93.62434341772195
93.59603558237603
97.3578076187098
97.47451284842835
97.66942350577983
96.48170129012784
89.84837310900446
85.63958979852283
83.0196243274066
86.54361674863819
88.25211684596717
89.31734841281947
89.58520823439464
88.71113524644213
92.35404387921437
92.19138248645869
91.41543268921197
91.61342628933538
90.26117720230046
90.81113185620306
90.91447050021237
92.51239452959771
96.58183298786905
98.68104608836501
97.77344292677229
96.73643279494263
97.10011255779902
98.33026531256853
98.57165763275175
98.0567802886171
95.795681131416
93.90872183184477
94.61173404515591
94.79461292609807
95.5742837493849
95.01899267973137
93.23550939103366
91.72495189851287
90.88129272439042
92.1054519604351
88.58651252087498
85.45989661940327
84.31885301802699
85.14818361517631
88.31295189385632
89.66601186629231
89.99646197245124
90.99790926295735
89.43516434250118
88.78759114275397
84.98659413499168
82.77448117085603
84.65951358904333
89.4706589406385
95.04955023153975
95.5115557431875
92.07796744004142
89.0281226160183
86.18081165870504
84.80896038570005
82.88539509901398
80.6278679707552
83.31441285997317
91.55013263282352
96.17515472846127
96.83574156216518
93.97846996855752
86.0000970393973
83.59393580750375
83.92102745853035
86.86817888958856
88.62191636789032
88.06506659861739
88.5871928136134
90.61465144104446
92.08386013832158
94.6684506698107
97.39699328444038
99.25071001346248
99.1430405581275
98.22667020364732
97.15446358099292
98.0010340774139
99.3406056170471
96.84944897000356
92.57999737515948
88.83404352116908
85.99778182215667
87.38746164411326
89.49635534074727
93.5925025329605
97.41069785457562
96.97220655977883
97.35189114102711
94.76872220753931
90.99982478152918
90.37764034411454
88.70978575119554
90.60137625656188
96.01048761952416
100.34261189612711
101.24719813036297
99.82319124612279
96.32042859509522
95.62730882623647
97.49610819083252
101.78180996011741
104.7651937330854
105.17165835528641
103.48273894572732
100.3873536812722
93.52264891305475
88.94181167017402
86.55395236590215
87.31029554761847
91.73198048785873
93.26866732542
92.65713779324277
92.12398383760195
91.0097095139183
92.40395891526903
93.80491407202614
94.78004797334015
94.62277827130099
95.63503028218695
97.23845245135867
100.70198497953848
100.05724348371433
98.67432688401003
94.59453616390135
90.41230377949684
90.91398249469172
93.68723679417795
95.36113554585057
94.21484469852243
88.67723450872292
86.05666420675313
86.87122995107558
90.19668830032847
94.44960617430092
91.80703250208647
88.18185803682258
87.7254068736814
88.4640152109164
92.93462670293985
97.08880181379452
96.66589649045828
96.01325366592813
96.21095196786676
91.92759419766175
90.97589348831912
90.4650730390802
90.73016878065204
90.70148607488778
90.32209765701133
89.02955273576195
89.45536332513942
93.1134470808379
95.52254398700403
98.49543076976927
101.57664185753633
104.44296898522359
105.09894093950932
103.52788614195993
99.00857056400906
92.12586562047798
87.50063085971476
87.98116797734255
91.79420810997838
96.33960209030555
96.11140972881384
93.32005536040715
90.37533718694459
90.72359434738297
95.74886305594505
100.54134667748502
97.54457397737842
92.74144365008645
90.33347777132184
90.89043962105862
95.67969619102514
96.9989220923017
96.29427668812912
95.54481457051853
95.55420537186659
97.27944767420486
98.96800531743486
100.66587057287315
100.1023384996144
99.20134148963854
96.30869090527142
95.19732058600295
96.62660076427164
100.79298419095726
106.88194694778423
111.89753263900548
116.47997361853596
117.16692302318549
114.62346408755228
109.79281833266846
106.9137448551668
106.79072890855893
109.00408982574788
111.70257587920183
113.82686476143633
114.80080959125749
115.80902230929098
117.02553845018728
116.82212778209048
116.86677511130179
117.2872293718977
117.44242342900365
118.9681895268086
118.80740566379468
115.7739908533702
114.16233823195441
110.33000167099723
110.43201124304346
111.15720612869966
110.95354091915182
111.74323513064648
111.9305102800915
112.35250514012827
114.15942670067078
115.76205794683116
115.47193362563615
114.3896904512542
112.83265947687279
113.59919455506724
114.78398556525147
115.61628847989414
114.47596051766081
112.80244430517345
112.53733312455437
114.08527514495663
117.54298064161196
119.86832456139514
119.67563149793607
117.14951347512442
114.13141001349688
111.57833135598922
111.74885435303642
112.39918313970875
112.71344369262336
113.46002948607553
114.09612344278655
114.98761353051233
115.29494392505259
115.01696396923961
114.89836598467828
116.07253388937603
115.87977272226401
115.66246830375654
116.67164653740863
117.67015860565841
118.54395911649145
117.21886008926064
113.44340336106781
110.48814546518712
110.5761887959844
113.02906091685875
115.2735062719587
116.91369609596127
118.0124583390415
118.7092940584233
118.70506566933008
118.42253735170054
117.99854537972168
117.43705111854388
117.56692683440876
117.69457931304964
118.30090969372795
118.99109317356252
119.78089505288024
120.00510342877402
119.48917081409947
119.08781561041671
117.84000035696445
117.14529647320481
116.65162797159039
116.50957033747436
117.06491898592822
116.55082287876765
116.70417643435664
117.08285094149906
117.45441167739692
118.83232403389688
119.34842637569722
118.99662195515401
119.15322680056073
118.68207682430375
117.62673111275583
116.98500954826685
114.90477980381681
113.66130932921735
114.0999537852632
115.7978345885284
118.30167991784434
120.77031619057115
120.86223803269792
119.81356294527572
118.24851736292145
116.78295731238404
117.1447504747553
118.97211390464774
120.42564737925568
120.25196657094634
119.69505835864496
118.82292801639912
119.17928125416418
119.59166677226801
119.84680352494523
119.45414391237458
119.63303841530175
120.92789684677446
121.31292033494347
121.48250897137339
121.7050324032412
122.25565204809422
123.23978514508894
124.02404097287527
123.59586992574795
122.69140765830441
120.66754647690617
118.80862981508265
118.02649006048254
118.72310153494391
119.93473644145338
120.32092634400459
118.24822134395588
116.16990121888846
115.80525256891515
117.15140014969283
118.40947125112075
118.54292567421889
117.8114427784202
118.22239244042957
119.51253052744731
121.16338785853077
122.08281771552683
121.97424988957741
121.93039573596258
122.02298137566504
122.8060319165075
123.04034863226379
122.16498633112754
120.73063573855107
119.57784199108298
119.50655812851636
120.49397941531579
121.21438990572935
121.86333922290075
121.72434281852416
121.41802818704608
121.65786706749208
121.5879020500008
122.1746024110211
123.834069771352
126.22301518729753
129.82558401993512
132.96777841811775
135.46081761781122
136.14312431587732
135.49192115268718
134.45714644588122
132.88298078590773
132.45590996984834
132.9023669858787
133.77562211662942
133.9726298968553
132.17680157310278
130.66847499985218
129.31078314634345
128.97627780965044
130.19730101644575
130.25278782110675
129.3493856208864
128.70650374294746
128.16906925222983
129.03300860418864
130.21149603913895
131.8679255685966
133.06273616365627
133.49992575061108
133.07352822604577
132.00254173744688
131.05194479819056
130.84529485646522
131.32655121816094
131.72048808519617
130.80871837578036
128.26098544338817
125.13995920265957
122.46295544865865
121.95158612983877
124.46529434664697
126.63583422715901
127.70726992917352
128.08954979366257
127.86533523348334
127.99074738203645
128.14301592794982
126.79571256208781
125.25503560624168
125.04390452500326
124.7453221952824
125.97530631118258
125.53467745016806
124.62420426508945
124.22952610800792
123.98038989483987
124.26837255758817
124.7126415259469
124.47528761753917
123.3559460748347
122.19755409917988
120.52497498952594
119.22903777616077
120.57558814145884
121.95335528283842
122.1513685985392
122.0420696091412
121.36593223101663
120.93647400048073
121.5076835576457
122.47042826895334
123.80423085783262
126.14793882366537
128.12342274659588
129.11382423893582
130.01388058321004
130.70130959194867
129.0903692160748
126.9445324198313
124.24648018961844
121.02559549272193
120.37463302287885
119.46092799438857
119.82099507091834
122.63949590176023
126.09480244165746
128.556703498408
129.261840918089
129.53276817297652
129.12014059026893
129.62114310991288
130.4155865665246
130.74175757613875
132.7825949979995
131.87143656387804
132.1795479740407
132.00785029812178
129.90080789561426
128.2146460795791
127.03826817887617
127.35861190745327
128.50502443374802
129.568373869992
130.42032582915698
130.95488990324685
132.0588153996114
131.49333198376303
129.91724715928126
127.9123431534575
126.2864691054678
127.14333262715047
127.87057027343818
128.0397276095198
126.13138808793208
123.39820812090984
123.31861740684937
125.00075830333962
127.82947732288568
130.9457664956638
132.84122461959174
132.89299163650804
132.6481921761186
132.10990746346272
131.61471148503995
132.3007116578451
134.08123103144737
135.5586997113194
137.13245811318768
137.20966739055112
136.1760113222438
135.3159833489848
134.36803962607604
133.73886519550933
133.36385406688282
133.23799804411678
133.336968049136
133.4857362528832
133.98854187895816
134.26814220218333
134.19272742088617
134.11795107803428
133.44424075301492
132.57105623350236
132.7360968014018
133.254854275183
133.62703573822648
133.8011696249898
132.37266175632988
131.4262674752464
131.50674691591217
132.3593365913473
132.66348084187945
131.9614075571991
130.90529852298465
127.30766350944253
125.85909057682633
125.7302218228235
125.96132783905206
125.69258762994527
126.03100452033783
124.66370541916085
124.21902944086186
124.31910013028445
125.14791124360951
125.53779020412881
124.75988334924094
122.53054550532158
120.23210323023625
119.40285905956655
120.24565569324417
121.6786750286361
123.39839105327482
124.33116378358592
125.42114922163317
127.14249562155953
128.08923783106923
127.5885565463784
126.33723754261845
124.37354962621438
123.80598144625469
125.01374075828264
126.48917692276501
127.50000032844352
128.0533902313072
127.8835521885187
127.85877635085944
127.85817574124069
128.10175426481882
128.17414202361783
128.07832590296618
127.90833908111816
127.81012573218945
128.25234670837074
128.5690445955126
127.9756813102775
126.928450873657
125.96075131867158
126.10911715478102
127.46684796686718
129.71612944987953
131.33980459956797
130.51831452134712
128.53486243356645
126.47557728587046
125.36846484633982
126.39579043221393
128.47550824007067
130.00273239316417
131.63486557429502
132.731650542451
133.84355531492258
135.038464501421
136.14880740893415
137.3827384577856
139.06806555764112
140.71669400394953
143.1278744350593
145.19666026905955
147.20900697484643
148.42011978107365
148.60789833284903
148.50235573405618
148.26823167596433
148.44511821776172
148.76509080920437
148.5832920832286
147.66143873126256
146.07219694316925
144.65854636652767
143.49075977838842
142.54103022227034
141.79436161618517
140.81190818748672
139.84148587578377
138.639226796755
137.3898235109414
136.53898784956152
134.59145327829793
133.74563072962977
134.73831256625206
135.64157658329577
135.30018253209067
132.7967608902615
128.8873255543484
125.19551290917576
123.80866004774438
123.56874547538385
123.82545263086823
123.71128458310054
121.91811679967815
118.83624308826815
115.50022242865325
114.69021536550086
116.39272857070162
117.98728511859221
119.40339107578556
119.0277725363678
116.17695434776972
112.77057481523606
109.85407435581944
109.34525981656985
110.37917585833303
111.09097561951633
111.25544801042948
109.85321221082827
110.15838401788426
108.75707471480834
108.84238430512026
107.70039956202478
105.6991159191182
105.89686912296723
106.15777269169915
107.29772002684233
108.55043759856942
106.01222838597606
102.79411767007326
99.09883110100532
97.8917332842344
100.19428606280847
102.23540193285447
102.86545286765025
102.08179685523343
100.7360808616138
98.98043233823793
98.17892294110345
96.13485426306302
96.11601089675838
96.89125870467252
95.48024245856709
92.60021974447523
89.29925103069195
87.02718062995564
88.05725164269562
90.99608620352163
89.57455113200709
89.52671713699834
88.62651918263607
88.2690075323844
89.49609257628697
88.58501284852463
88.73649022102396
87.60252001032167
86.55296376639545
89.37947531412898
92.05364858029417
95.56134502777446
97.29181513187324
96.17431371312888
93.25242484986266
91.68114186763096
91.57670319135661
92.6633389456328
94.36010809751376
95.73099493398935
98.96945707608945
100.287704607175
100.02904247163288
96.85895020546896
92.46179488832199
89.65360908925932
87.11405798593606
86.18309318553223
84.12751894410445
87.22196576684146
87.7000506625633
87.08494586156142
86.17001429653297
87.152761314189
90.25789201811322
94.95423936492156
96.05425974461453
97.39307210993833
98.95800553349135
100.51465261954239
97.16295063252495
93.08614050112266
89.67173004940673
90.38773521570016
94.99146651037913
93.7826921104645
91.68949001413633
89.24022246049404
89.35986907275384
92.54756406217757
91.37042102224373
88.52895741159921
84.96525454707128
81.31371561594965
80.4498683568566
78.00585900448496
78.2196271710221
76.44656552356439
78.86937790981023
81.46596978034236
84.11507430790756
84.08219646554197
86.1110670872151
88.52738956202118
92.53119349831253
95.27285849546786
97.04437123546967
97.14165279824996
95.67501341492061
94.5994590778631
93.09029592197987
90.70311473670063
89.38462746181037
86.05219772259184
85.86904985039746
84.73829264467871
84.39839810532426
86.4418669874084
87.73783490943947
90.23700883371642
92.20696702374309
89.56505661488463
86.7275374285911
81.48050035384071
80.03125470684672
79.37610046401151
80.457488229923
80.55907889755265
78.39566082858575
75.74280353863738
73.28905292092615
73.35614727398098
76.32286158291794
78.68175915956893
79.39215591005186
80.07675543988265
79.65915909237391
79.59516153458101
76.90524192114918
74.03149726110145
73.66363483595231
74.12461970443917
76.78548012907352
80.423918980033
83.4236322459993
86.97356951086088
88.70734321563552
89.69395009415308
89.45443021241162
88.12246452668839
86.27422618700106
81.50611996534387
78.93379271101028
77.24459639381124
81.19385837815582
82.5024780419139
84.955767332739
83.5001849270785
82.56325436191428
83.97993920826997
86.8415375621156
87.17546009045341
85.02463728962752
81.81147685447355
78.5527633602229
79.26850807525514
79.03926881455766
78.65156104690863
77.69463409329278
77.21769189881236
75.02604948120214
73.90690646711475
70.83866789938675
72.3827565643723
71.37866705207392
72.624950883775
71.72185093307301
72.95782424477746
72.95383356733608
71.97350802851248
73.02803126610576
72.4747997542567
75.35471600954938
74.33403511117642
75.4433960376761
74.73534201613266
75.71506971354295
75.02596308149504
76.31790614975338
76.54680833138181
77.61786309906311
76.41557062742494
75.21149171761779
73.64718991578435
72.86745831790662
74.16297974641155
73.52630001051797
73.80018927468484
73.34361446770059
73.77666619956683
72.93975811766703
73.77333336856015
71.46089253041512
73.62431240200634
73.5455365115062
74.84389225526006
74.07095846928647
74.28287933737886
75.10468461410363
76.98168341834479
77.56704280948345
77.70061314075127
77.0951384688771
79.85087041763433
80.27701569974087
80.07474596470018
78.21233066173806
75.07372786155867
73.34203944217433
73.17121495984432
71.639592298649
71.9708253030686
71.65426716770244
72.93724978758165
72.22468919531445
73.61920110030735
73.22346157996009
75.15436911370855
74.05746131310232
74.58240881835178
73.46538387134251
74.5987769309493
75.08793493448373
76.73787363414512
76.71260986455808
76.03411040086567
72.44174007051247
71.8263148617443
70.65575711359938
71.33492015119138
72.53657537089165
72.81454013666841
78.05890484925986
76.31783921119506
74.82654515887184
69.6835037957316
66.4739944891351
68.57468562433098
70.82350119877307
70.6806699054325
70.71219462575226
70.23506305478845
71.32689126899396
77.06962867251485
80.74084134317522
82.73669310147322
81.00003045014118
78.04631828079044
74.63606294829874
76.27473342013958
78.41522322056854
78.8948583140186
78.77455257733631
78.62193874667771
79.48773020596676
80.08895292892001
78.83734685593872
78.13801369723302
77.36494134372828
78.09969823406485
78.08523907481528
77.04529358816418
75.03835538489199
75.74301161986311
77.47239955957849
82.27481116926954
84.40051274076929
87.15588751873746
88.88023561809064
91.64524480214145
91.59503131182532
87.17855845707776
82.00593723599368
76.62142960748481
74.36469716813792
75.03287260028799
74.91538588257782
77.45965153089135
78.94120711013892
81.40311347202667
78.4141715297785
75.95599964790532
72.09092948336026
70.28896454881281
69.44605294852497
69.07723487212283
72.03720394984288
73.89824009484339
73.64349141510577
72.42812910858966
70.08636166794315
69.36561422937585
69.59100472837798
70.288523106654
70.14730089258313
68.29587217222459
67.785701076528
68.21600647014554
68.82143333044286
70.11454458730158
70.38747160836346
70.25395839576005
69.1947472883777
68.80793550579186
68.1510861036779
69.42605237325964
69.23351291139309
69.43428792743063
68.51423007162377
67.36635792159302
67.40585239236711
67.37423212311076
67.08483836362235
68.1403721611333
69.88400020562831
70.45837692082767
71.09359670548315
70.5876433120217
69.36190709801092
67.92298536917835
68.09506799602866
67.77807054637316
69.10862186243213
69.8796140598468
69.49272770800948
68.37368370510573
68.31533163633972
68.54729068689376
68.98399277234473
68.52774148480064
69.45630610813845
70.58981365359
71.13205523965095
70.61437164279445
69.17879786940557
68.4675005247222
69.31178964779855
70.6179379423094
69.62811422261386
69.08846448048408
67.55995418211108
68.57421749908838
69.32470985857546
69.64956385531764
68.52874801462532
69.99936943522593
69.94787795182214
71.31201889899772
69.52827124904283
70.02332553925909
69.07207427762904
70.1853042627045
69.49154913166933
70.0156602413889
69.76839996904765
69.86573028124346
69.00807155628078
69.86220054852424
70.9829145164489
73.09650196885707
72.41973980224465
70.60525029579048
68.26404214919833
68.96056756152483
68.64311742540266
69.49651230979657
68.57178894920845
67.63783856817808
67.10359108065958
67.95581601992866
68.24370967656239
68.60700254772419
68.35779136742653
69.25250469125143
69.5994808000286
69.07609037923459
68.92069227114284
69.38027711659643
68.80652582802746
69.31636625534315
69.70672625695153
69.93116519568562
69.60317780918106
70.12128460239767
68.92977010644279
69.48979831639106
68.09123476331938
67.10292108172544
65.41969812488361
66.2010128966696
66.34533791924673
65.53294796634296
65.85314365659501
64.94866503733328
66.03750908658012
65.637486542767
66.41894740128848
65.0611288556407
67.0027347567827
67.37702468443815
72.27463012888671
74.57747113035784
77.36439427420663
77.52565622063038
76.10132513487088
73.47289839195034
72.8531979438344
71.83095866474179
70.90822702034126
70.2085542266107
67.88029677796725
67.79839982483728
66.08839397451052
67.45937453330016
66.1146222372406
65.93703055301589
64.38006321180032
64.71300431496465
65.52861715919019
66.14552194961662
67.10365165098598
66.91261641099379
70.85026206919049
69.06774320565782
68.68622112536258
64.27235734208294
63.05587746031395
65.275510238835
69.34133428400848
71.36639772895762
71.38926779911816
71.07817864903537
69.00446292940342
68.41385649952005
66.5874233511986
67.26002467577166
65.86163356572342
67.8572347857843
67.64751709593688
72.64134685971155
76.87739646226898
80.10055479128526
80.96102752046218
79.62104420577948
80.19382502225184
84.0512614490064
84.6589997892991
83.2006181866669
79.7122219374461
72.68538623734051
70.44536178747445
70.81817770204228
70.64022950846623
69.58439546412386
68.92037083750503
66.97888086374039
69.76641432627149
71.94679047172347
78.18482426293497
77.79192028378921
74.64235478413812
69.2667698376566
62.396678591768314
63.399588194355964
64.02897093465162
63.80720083023236
64.03915514688094
66.44227356602406
68.56468252741371
69.96087722363222
68.74675263526262
67.84307060669093
65.78438179471279
65.92532987040589
64.32114232759182
65.31856536610496
64.64947449877273
65.40513568853846
66.29746657022304
68.28538834747269
69.87366364772834
68.31745339797038
66.88165530476603
63.03753431538792
63.06970572684051
62.27070714605447
64.24831311043623
65.76474823946974
67.4888918362064
66.91570027837625
69.18845528250097
72.55204617984974
75.59103360418027
74.22812854369698
70.60778040714061
66.92185405734794
66.53536972144148
67.7552587151608
67.65183499244128
67.82609038357782
66.37882591966905
68.0132611968433
65.6752932585253
65.9215532424678
64.28126686424704
63.376107869495435
65.42949830631201
64.33428392876064
65.94357099302304
64.07330251527473
64.85890047483397
64.86664884222013
65.48866833216415
64.80039478366216
62.350293484496085
60.726614579475104
62.614807345020495
68.24746240796534
67.5163987098335
68.28957160480618
63.87500595432394
60.52831860347414
58.89434719230926
60.41491726175213
61.70608481531541
62.53301685175783
63.52639849877806
62.63822551678612
66.70236180224452
71.95506898779209
76.12814350223212
80.12463762673173
80.53374523159042
81.38576111933727
82.62592795033541
84.93310130682401
86.90952092415286
87.22522473299634
85.11799639391421
84.04448784561944
83.07917488956313
84.1960663439502
86.15125165165458
88.28777650754813
87.04827839590686
85.30431389240323
83.1823634607934
82.60503956227969
83.72129744439775
82.69766636957833
81.0146569560464
78.13467862843873
76.15174337076976
77.20288425391828
76.47034427905984
74.0073098555993
71.84369394273669
72.56276995027343
73.5633178067316
74.72496847551719
71.63632411093485
69.17483696214875
67.52833660625981
68.96637963947786
69.32105145196228
68.3081257317372
66.82389512619902
66.20999026882446
68.08834464274287
68.33195717588549
68.41548229901159
67.29787796857315
66.50024631271137
69.43431734950909
70.31127577532745
70.3216871847497
67.74313640141168
66.00790560150409
67.04465251709907
69.33145584634181
69.51971133427395
68.47268316245531
68.08127691254944
68.31025538397131
68.36872484060859
69.8232692847134
68.43786787029063
68.34377379653853
66.65296530435036
65.42195551064903
66.51571266509008
64.41940458949088
66.44216200643402
66.77916141038554
69.14370461381544
71.40592390854901
73.03240138172518
75.35996255673146
77.85274825660797
81.42447718141017
81.05501348471769
81.4632613953193
80.11201751077938
81.1967310902338
79.96511742289347
78.11527204813783
75.06569833678914
71.58479108510102
72.0631248151186
75.37378782845806
77.82188691923677
77.78254163795248
78.98174926698337
80.8162545683591
81.85601560059177
84.18710807116976
85.70881667581786
90.71956865465008
95.46879400159118
102.1795591938811
107.63302975556103
109.77908915175213
105.59180232990487
100.48069528535687
94.2463107770715
94.3927135075047
94.15573397736638
91.68045428885122
86.22325968301881
79.88837875221743
79.1937153325842
82.57524836394528
82.59095458378332
82.12391087626433
82.35803758048066
82.11770039595982
80.71563607659922
77.83932460984474
75.21547138152306
71.67617909060237
72.51738959636415
70.63061911551571
69.57644474785386
71.40501049000282
70.74173174754911
71.3761736764476
69.90669574625794
68.70687032816329
66.5704354794299
67.61511616331416
66.65803064766213
67.52079820401366
66.98619776409464
67.54617499916047
68.11827925370164
68.57557758129633
67.86611283159075
67.95843768960374
67.58644175193051
67.82577606416311
67.90950731456404
68.62397158555116
69.32961833143779
70.8181889775386
70.77370542357806
70.01128184207293
68.88531542223417
68.95645715541059
67.9629092500733
68.04715032395788
65.93284416027178
66.01064873080023
65.7447799345587
67.38830190745409
69.43671911468496
71.10973802139006
72.77248318383153
70.38450044339695
68.96136016120437
66.47117143185442
70.33991814267077
73.68241447121
76.90147232745231
80.03768389585403
80.84199233833756
81.57957024543444
81.34257479087208
79.74791389657052
77.39502198030576
76.54054151755433
74.74906141817513
74.52608137208722
74.14649715249561
74.67576711907773
77.0995717681356
80.52913348877459
84.15891493736125
89.38849290780851
92.83256636409845
96.77148724991999
100.80293672972213
104.34908995312797
105.11281243133118
103.44293232378217
97.22747867731044
