54.98420867920524
56.68301554508546
58.160015068898666
57.13122040226548
55.756546875588896
53.59351917641353
53.42613262824966
55.058743043473136
56.10610404698284
57.93409039225982
58.968278254386995
60.03744767656
59.014369829702495
57.48747005082144
56.470703254383324
55.07997860791112
56.6540987615334
57.47669058412523
57.632201884594295
57.98744659734222
55.713454233567084
55.65634458362363
55.849347370486335
55.25015733573659
54.32107784119049
53.767169480239225
55.748151685789665
60.065721461059674
64.3258528100019
65.30476448746406
65.13352007652797
62.10719356538025
58.80457353761776
56.705753140632474
54.19393322601781
53.908868394043125
53.70803626013378
53.47467690326246
52.7984881620141
53.58722495502328
53.59920182255911
55.755887182821624
55.18924726221692
53.41372160196289
52.06684251322279
48.45075093248709
47.50504730662688
45.904217858939134
46.32764074472656
45.567695782122186
44.42382807370613
43.351299251911996
42.9433738439866
42.20561197787489
42.46826496611381
43.53964235054749
44.12622193509791
43.53438640569418
43.02257494519039
41.94115431540492
42.49891286598237
42.180398556092484
42.6374013916649
43.896683683150016
44.265537985700504
45.523429747175115
44.98282355823075
44.11955383310106
43.63468709616386
44.113814171713706
44.16607925107055
44.323485753279726
44.31480153622393
45.04725625607246
45.177551281236575
44.709159968169004
44.93741530772617
43.66140277161892
43.49280841475181
43.626592792558895
42.99204730395339
43.303651045742
43.02139505625052
43.30080918790994
43.67630973284218
43.86361860134371
44.23700650371355
43.58503281154573
43.66821173096622
43.8534418942822
43.630444253809614
44.30291262435728
44.17971489877683
44.143943529713475
44.14394352971347
44.173707042849124
44.37759699293197
44.08607698913514
43.593952963268784
43.439520728190004
43.782783939328574
44.42630005208135
44.17346468550493
43.79755367668253
43.68623761267371
44.72180006240369
45.48973815215986
45.630096846601205
44.78614574698779
44.66197187893485
45.07777436208206
44.7276453671892
45.1683099055399
44.54437838237826
44.45661182836709
43.722372091790525
43.16143419776749
43.28439080224141
43.42322350571324
43.502833459063496
43.359212361370766
43.73575253262568
43.86703915076203
43.59477315704438
43.418099405716006
45.44015509274225
47.074726598728866
48.46995771301154
47.121107196774716
45.78762751371556
45.150573657462544
46.41599122642968
45.67326821703745
45.39041168030146
44.49168368386472
46.14077243145163
45.963318072678476
46.24492726808078
44.23648958554604
44.92760188142108
44.255345027358274
44.686592931014296
45.11633491358361
46.036431765883854
45.69114431550169
45.88374832166502
44.93535922420413
45.61072630430234
44.60132140473726
45.56160744738827
45.83659368442337
49.7087053165703
51.69869664499571
51.19242160844811
49.88388192740257
47.17723665294788
47.42091884732832
46.79264437580524
49.823018633943185
51.62586116663357
54.74431861296576
53.928735502768234
52.75903573714832
50.26571346609776
49.200467879484805
47.33365035602928
47.17928701903696
43.862964250276185
43.629834905119864
42.08331100100377
42.35924460096393
41.72197759913146
41.94970343735347
41.90953127092592
41.690850590164075
42.51055180789303
42.69256747235591
42.9138807996544
42.517019536764636
42.52713185092345
42.20700594297305
42.58258197762581
42.779121454559586
42.563752685682886
42.38497495725399
41.85256264319306
42.080782664499125
42.45993603229323
42.85615018435537
45.52225686963639
46.23742817486029
47.133374550132274
45.344802319330654
43.46581385981653
42.27703668364333
42.344777635430475
42.427945952262164
41.82354707884983
42.51839788032949
42.929424402045996
42.922190082502325
43.20619184483469
42.41578485146557
42.84983460803599
44.144647371448244
44.13643728711895
44.28579158209197
43.20049937478544
43.0374849519818
42.99785697551384
42.82074939530942
42.63341827665871
43.27274113470203
43.178654626385494
43.044234858031565
42.13894596515401
42.93027967465837
43.0836315075779
43.18849292077176
43.40921006229559
42.93594769143088
43.213078963685014
42.7927475758612
42.54716567791841
43.19820157789803
46.02502246706841
49.137655126051946
52.00071732037356
52.96608942305053
52.183579920849496
52.398169138692374
51.84258547516667
50.44529744089969
49.14861607123371
46.92377694886761
45.88449755291696
45.694693815711105
44.80233447308955
43.7753691422352
43.46448975141077
43.03876279259863
43.1011335496237
43.79407334456512
42.84597424563549
43.218169971102725
43.45616959414461
42.4248273312699
43.177401103630174
42.52792018683395
42.80634172636525
43.494565453697554
43.35072388312494
43.69891086757688
42.47679196072297
42.95824405411301
43.19220127336435
43.802438899383496
44.59115837662757
43.27937783474006
43.61921709995246
45.019088996082374
45.966803823730984
47.4692702986019
45.785664496002966
43.83259405100788
43.77754789087073
43.91457113839232
44.30117565218011
43.966077393118944
42.83969123603772
43.33656015763299
43.45724620577219
43.47342556553182
43.53139052125415
42.41709694248144
42.939005581029974
43.60869515201009
43.52783517605934
43.545768513853794
43.23576645015982
42.839696427440565
43.59055422755214
43.32167778819117
43.329823321723616
43.95674380289481
42.99626209667433
43.36005151837426
44.24287413569238
48.205347587101585
50.41290198815768
51.38122517448149
49.96951807601973
47.87958095188018
47.27823108917906
45.95575801800611
46.4603649199775
45.42956479936688
45.44742273691085
44.57259680106007
44.44643530913792
44.92926940734178
43.95570342697805
44.74260515022669
43.81542643241124
44.709375295275684
44.205166237745644
43.86508526608573
43.6208718451089
42.500479243137455
43.99967267562539
43.53360302271831
44.229239882666356
45.33899037291575
45.00167296102375
46.292038466880896
45.65432517275191
46.342227677477425
45.38980269250355
45.36844797095457
45.28971326769288
45.28354659479382
45.662304933827805
44.504994556575525
45.83847455998573
45.7777452296471
46.781353952452754
47.39497893158116
46.31551204059677
46.50389063908833
44.48441990722377
44.836092865726364
45.037849596157486
45.0747681292611
45.3574156562374
44.38877446323687
45.107982904999574
45.26511678306368
46.25750498907321
47.74931056408371
46.71998437712957
47.12853794331747
46.680039592506446
48.52969898810492
51.40705981680015
53.60007531832742
53.71338591400123
55.14625871268749
54.91866318245835
57.915016112005894
59.948560803100655
63.34439640849424
66.7673111070954
69.90203472101803
73.31581930069724
78.75509641789748
82.74526242856508
82.95015183555326
80.65437330360584
73.93974276645491
68.77915563697722
68.10656137104766
68.89154290092935
67.6463861361359
67.89243568635105
67.58890555980501
66.95106229714351
66.21890302312754
67.18086054822253
69.49921500018057
71.76095706507485
72.37451847069227
71.07589787325519
69.83496877888217
69.25512705768584
69.3158610653046
69.97113712382033
70.40302726342614
70.54685562184636
69.80575887325699
69.27750790403182
69.89717544514832
70.85261040357096
72.825021980711
73.78930259116372
74.4785468663481
72.74326759332985
70.10615806486187
68.345550536493
68.45735992580602
69.53913480647358
70.79467452061513
70.02473945967222
67.61872056636116
65.60669634854112
65.75514056076845
67.18784583098926
69.84914613227745
70.96597902494372
70.95131163348927
68.29091194471344
65.97234682298705
64.94056410370186
65.71464481058368
67.80804111465798
69.25507489790527
70.27690936873785
69.6622794375472
67.71429164909534
66.88457521489434
66.33586011938324
65.90311645504023
66.0614073171328
66.5203458754401
66.89452424431347
69.00941376706325
71.1715308432619
75.12327041311931
77.14716238520026
79.65293747670833
82.17805927172209
83.07324530422926
84.2245909840343
86.35024107608845
88.10079192745114
89.35811219335477
90.00773862467878
91.21762543906681
90.7996130471726
91.23883283208161
92.21800669892379
92.1274788491065
93.1658860301914
93.9967959430046
94.75443414220095
95.17172977085882
94.71437912187945
94.44717104405481
94.00773217767691
92.75761730958229
94.15495774758311
95.24604755954738
96.3851181024833
97.40450502592142
98.56186114489621
99.5110981644584
100.38146373883968
101.13776220015194
100.91496655091738
101.50432420113542
102.452574843742
103.12536153338559
103.52517615341088
103.29645999081723
102.19479291850244
101.61426836600319
102.09249544563103
102.04319976486607
101.01160916880221
99.11238009856629
96.76682723482452
94.95455929556788
96.33929205805788
97.5894339948458
98.90545061420164
98.70470528597879
97.63843375866674
96.8368202392965
96.22312597974037
96.01236655595517
95.5255987331861
95.94037112706873
95.99213813520889
96.57793371719266
97.16902762666143
97.82879025361939
98.34839504793173
98.72148801139485
99.33146020819323
98.83400245457335
98.56573326778089
98.01272087883933
97.60668012287658
98.05376173963778
98.82701407982108
98.4340335772535
96.89006824259484
95.94305248587277
94.43967163546272
93.92628295760898
92.29311063555345
92.6102306406908
91.44051903372173
88.71467198221015
87.46601191483394
86.61464578564025
85.74087132276419
85.24155175011379
84.10467189122855
82.9700886525609
81.4941332425768
80.01356374053276
79.37213738818406
77.48295504544521
76.91126152876944
76.8236216464504
75.64343245099697
75.44831368006079
75.08222575065689
72.8533795966107
70.98765205143503
69.78935574732294
71.8060973010666
73.3619925115899
74.25873383832581
77.45360333340673
77.12246796414645
76.53020564593729
73.71566307690354
72.38661637026657
69.10557120736146
70.6285749385943
69.95306751574734
69.32430187797975
69.04152894844246
70.77881604132068
71.79864479332944
69.72897909961574
68.87101664561823
69.03851252384268
70.01875814556085
69.22227657041216
69.49567888103286
69.21217715676937
66.63470367551133
68.5080031355534
68.71138063782374
66.28889675419958
67.03503679153205
65.70673870674648
64.69278059730794
65.27886042031686
65.99333366035592
70.13867336537288
71.96757876175492
74.84050807899628
77.95018354399934
80.02471338893385
81.80489458088527
83.74960508504479
85.73741049034206
87.09501583692168
89.00926889574835
90.35731024803142
92.35325242434423
92.94374115446641
93.68875477113546
94.13338208917452
93.8588087100532
95.26084008464335
96.91538658943125
97.07834493951474
97.61744583393097
98.85620576514081
99.28659496918407
99.9909883329297
101.3814124905034
101.73155462715455
101.63353323939894
101.85584209365629
102.21381256076724
101.68865181044438
101.52447949990473
102.71988323041266
102.6585156144269
102.78623373936054
102.9430481662878
102.98690837145175
102.3665471738012
102.12672143118375
102.51861824811027
102.56311002222778
103.0484291639
104.085268746253
104.96753123878929
105.44852259803929
106.44123581407477
106.9323365671255
107.83116577476673
107.98230822063653
108.00925914272132
108.16268446068061
108.26656917428912
108.659401512553
108.48077844995302
108.2876953754629
108.38578666759592
108.54818718007365
108.76378114057441
108.46547896232092
108.34700601041277
108.4023380161719
108.52067169460445
108.65077706722515
108.38153788126453
107.61169636978819
106.3901110558642
104.91760758146941
103.32140334478595
102.00740819832609
100.62844576530863
99.20028237554887
97.81706023820205
95.99335779813349
95.05402854019665
94.21509297767489
94.2782764851994
93.40602111584884
92.2753536218952
90.35876489538424
88.41735787290003
86.23271510743932
84.59465818406579
83.67709617552308
82.921761193364
82.8565406779309
82.80355222129495
82.23069132383657
82.04764216779564
82.22903011113051
81.62234079874003
81.07009132698114
82.04307806044544
82.3448217796063
82.83582068759853
81.47125935119855
81.02432771714095
81.10498774063345
81.68733647171948
82.77691599277831
83.16831094223393
82.67552066054847
82.22947504926645
82.4098990144177
82.67744901612909
83.76052405650304
83.10639475526517
81.6656324329948
81.650048359944
81.40678045466254
80.29415371312582
80.343896709808
80.19367210087941
79.28848676189709
78.34811503826813
79.18274221252612
80.1126516904653
80.00681386737845
79.85194993012142
79.3826986960397
78.23970431271795
76.70917984649118
76.3081339944062
77.13414486209494
77.41436282485932
77.52198706253256
76.44009882277662
77.05711684873135
77.97667728320627
79.83391830840495
80.26660124143788
81.33565128900605
80.89336946207874
80.8016755727299
80.68470436381111
79.91026581032676
80.15302167884977
78.83548202799432
77.75211638661409
78.32417321608841
80.31676856728544
82.04795995957738
82.65194543389075
82.75425031300955
81.50388653298971
80.36469107160161
79.82178550477558
80.05999900144435
80.36028387752766
82.21022791739347
81.88066958404275
81.0249765392563
79.79678028814378
78.86544195227836
80.01642917082627
79.93082842952006
79.31975903875835
79.62670072247523
79.07364674808295
79.71840424289628
81.11115715353233
81.41331837920356
81.01434424861557
80.17493324050432
79.81727784904209
79.44217760312088
79.20809627463876
79.3736363466951
78.57861082334117
77.79558291436032
76.83317508353295
75.7992322309634
75.16225884655239
75.44356673519795
75.12822296445026
73.27045549978085
70.91963565204924
68.96150708723553
69.08030411710163
69.70372680654178
70.53132440893027
70.85261301707565
72.00632613409655
71.66522689030656
71.17695311445704
70.65604650257208
71.56255158822268
72.53320822814896
73.797456888948
73.90692596393431
73.46430116677791
73.6412545367365
74.97015255945423
76.18095278255959
76.55514097498725
75.82783364110873
75.83491084888225
75.1762997621725
73.80174056477587
72.34974974867933
71.62848497906809
72.28220534761584
77.05783034560693
77.21151548224253
77.38879370797552
77.60840688710138
73.00385440064902
74.27304110884404
75.15352311489124
75.13378839487984
74.39664383073
73.32680840034095
72.38642598908552
72.58990871231507
74.18186699728625
75.36372185204343
76.58336550317763
77.06186165243237
76.45780906229415
76.19382544057194
75.91370099782007
76.16149243374076
75.87784268937702
74.58764255403727
73.73430051374423
72.75369396974995
72.68176933204273
73.19864591158486
72.5371303270272
71.75968463101734
70.54434254798883
70.11630677725712
70.21519776277734
70.30299236243395
70.53121256233513
69.96856945502921
69.33081430633436
69.20257598369398
69.7864107230865
70.21615761331235
70.19078114929455
70.11589893429054
70.90565811043659
72.2443571851105
73.08349535184806
72.03368164113368
70.47768412043143
69.38558968523778
70.33101975311949
71.37468918524087
72.2318107336151
73.83558122810929
73.85967128217376
73.96507771807775
72.86492676984426
71.70432208070635
70.92353613557079
71.22465410901492
71.92392655674013
72.4689848062009
73.26529703630945
74.12224398901202
73.75809775557815
70.83280540657613
67.42670649052718
66.67179531055568
67.71637454231896
69.89138172481167
70.11209545345635
69.26632323547483
68.34989036421734
68.84037055875962
70.41258351092307
71.02100958035184
69.42306567204398
66.31445319041869
63.86605390443369
63.44885566675801
66.25588651185323
66.5695845044188
64.84776207705596
62.50729629144427
60.069938976824425
62.3021057872324
65.28251694205002
67.42484721945871
68.68243577169329
69.15473796042366
69.34295682081053
68.99251825183251
68.35445374584262
67.8920905970128
67.88466112481385
68.86900274592413
69.84890495719932
70.51308751000333
70.27650749470111
70.17274933746234
70.94165378456752
72.14910417098727
74.30048894200104
75.272772932181
72.65566928375492
68.01905671471047
61.91899875948565
60.61379434192073
65.26920567034796
68.71688371965578
71.7411094807405
73.26158232934952
73.99925355438846
72.69508693948097
70.43631640645552
68.8614153005658
68.47636678616163
70.63544150559662
73.02162271835472
72.852757183086
71.60952504796161
69.21748398782205
66.72962643964877
67.76720716664589
69.53406154680584
72.84494732481183
75.79628739614854
76.86808734667507
77.04156702556608
76.1835153359734
75.07269062003894
74.09454378261557
73.34181801918137
73.23927846891206
74.51911218621787
75.85840707193161
77.59103180563683
77.35227002435725
76.17270900685448
75.68733115811389
75.61868200476643
76.1950794572132
77.48600358256756
77.18645785266966
76.39754753720209
76.21820010294732
76.02498851312963
77.9236704358933
79.70904379515021
80.41729556303795
78.95115148213534
76.75941665178593
74.31042416699863
73.72668219091992
75.27260299623076
76.14241681897269
76.07311390366417
75.75708016447113
74.76725449647385
74.6335827185362
75.53704309033243
76.11633998293472
76.24969119718334
75.79025968993999
74.47223246712994
73.90716335512919
74.44530660108634
74.8932575865785
75.42506504885677
75.43722204662281
74.57671973388746
74.11356532151461
75.6952528853993
78.18406527762028
80.29001330516645
81.32985117681088
81.43970529981183
80.31155272098816
79.26889523435163
78.91181658780314
78.90755990363577
79.04733069120073
79.0371595277835
79.52990791322881
79.6502442016905
79.8826933347477
78.76794214051522
77.40423360513742
76.41271172283105
76.31159447437182
76.46365715026215
77.18630923950712
77.46593467406288
77.11725788688116
76.20608707304164
74.55086691291503
74.14036899099486
75.35312992218472
76.31858432397406
75.66274152036657
73.0350816425063
69.5810803174169
68.98125624728468
70.89030205692083
74.46260281652151
76.2498746951164
78.43937896564331
78.36498320066002
78.78425735117553
80.04355212346937
81.20159462923027
83.37860905197265
85.00189719721955
85.83943707164566
85.85142098623427
85.04112339532035
84.00651528629452
83.40413105739304
84.018841526256
85.63097843283248
86.40515092988005
86.13583712989265
85.25305226856412
84.15615459747728
83.57704533051589
83.66886404078352
83.84065583333765
83.49390469396795
82.85833047152197
81.93668558730445
81.14857352044733
80.24456049967803
79.87950979823873
80.27971084036393
81.22383962845691
80.11967629893941
78.47559846239366
76.45979600320342
74.83997408651851
74.17035010929807
73.51672571092007
73.54627132309015
75.02525017374217
76.3692987973452
76.80639677524654
76.52356839145033
75.20503383459257
75.04299145911301
76.35593205654045
76.94864942904867
76.89387793070568
75.79066048788724
73.94035518418724
72.54408840235266
72.21175940089014
73.66154913298725
75.55894028922063
75.8434027136496
73.73026225988028
71.71113925760837
70.37491759487627
72.87508389226863
74.32682341033397
75.7465609698822
75.36101986389797
74.74208150607427
74.57839613931034
74.97998527358125
75.38562038226571
75.50438586859103
74.89525103211855
74.07180783885421
73.98574484125707
75.83599977756062
77.40089954724407
77.976033156787
77.37085250405421
76.09169165315184
75.6887790570401
76.72146534264893
77.79560830369054
77.29214807771942
76.39313435042517
75.77322029709318
75.55473171993681
75.4825338730829
75.02601826202671
75.14989082812433
76.07110911319518
77.15036161609771
78.00775546816311
78.79812870337108
79.80242398085872
80.7371274238144
81.81751675386576
82.59151283693073
83.87979467345933
84.4872850034045
84.1946906660335
82.36508810771622
79.60850119236784
78.25079202488587
78.00591587340892
78.64859455552347
79.36388187357426
80.1852130544848
81.10978844564303
80.64124942689371
80.13620482666325
79.69950952002954
80.32241915418479
81.56533907744925
82.27221779196032
82.00563696690674
81.67876476977035
81.21114307541936
81.51859824435661
82.5078653190591
82.95252130322537
82.77440584801937
82.36084037322722
82.90012043430951
83.96237611285196
84.80141506396077
85.0058500044791
83.92054671834892
82.2956393582327
80.97699193295588
80.81709410275049
81.46667767995137
82.28889480640123
83.7947352411019
85.78756522783044
85.99656351860646
84.6196056416499
83.35307541807802
81.80809115704716
82.1376772996349
83.2412875559125
83.47640437110437
83.99763541826687
83.27290533129705
81.57011061254302
79.66809458689629
77.69685000303889
77.50346569747305
78.36488125288956
80.27809277359147
82.41849492652885
83.67941691529292
86.18463023444221
87.9063358423277
88.79026141331518
90.33529634935978
91.03648718599408
92.28456488134354
93.88706889478664
94.84479072562358
95.73989223069735
97.36569663679984
98.40075651870364
99.45143487112053
100.78343424886636
101.49514249354745
101.90501167653217
102.20703297021944
102.03789947902438
102.08966722837717
102.07466986045465
101.7824203942629
101.82051137629315
102.28540013334303
102.72473094425996
103.57417310048277
104.14961027486362
104.23152413780689
104.25284844830789
104.12987679725886
103.51396822939877
102.80072292891083
101.9247186495254
101.7314932492055
102.23255830013169
102.51531304524222
102.45998047031581
101.50457976444319
100.52096182968299
99.85148197495181
100.0585841592392
99.99830038794147
99.92053540875848
99.34503232273171
99.22720631430145
99.2410491653035
99.39515333488667
99.39697085204504
98.74219225768961
98.18069369034828
97.9470463042561
98.13981376395144
98.2722401971477
98.21458940167254
98.00645856660093
97.64137348398697
97.52995857396498
97.21217148868476
96.873859195306
96.53735768411197
96.20659813613509
95.93462313843345
95.76835289635595
95.11878880009952
95.12807447924291
95.57616381168295
95.71814622155618
95.60836045718519
95.23375709407361
94.73742323280703
94.48344810957033
94.44043631806704
94.56613535864987
94.54786062669653
94.67195660792895
94.63946756082704
94.25030193193537
94.0392456274299
94.05096189678595
93.65449439565812
93.44612488706288
93.32605221450439
93.41980794839763
93.98686563949249
93.9361492990035
93.19090073580604
92.2347371050293
91.34726922548178
90.96801035603949
91.02093460893656
91.16516532131266
91.90394743190173
92.44280455123864
92.04348072768398
91.22217492739725
90.89625423902166
91.68514647868601
93.96094896425852
96.57734133296044
99.54727839653215
102.69765590318353
105.14817575090798
107.1991298000308
108.89366727827549
110.15919892982548
110.75070243990406
111.2669194711082
111.16221181488437
111.30947356799744
111.6307219582483
112.23349645946087
113.02375736178041
114.14685081972662
115.06564085010163
116.0347924555683
116.39462390872049
116.7350280258257
117.01609551232823
117.3441442709066
117.69544401533302
117.93993085353875
118.10263197783195
118.17466411942489
118.12650178226484
118.17372069450333
118.1600152690509
118.24914498455703
118.47223621072179
118.60733629611485
118.3892852226371
117.90717388885113
117.46632810977995
117.35288482167492
117.65479426707363
117.78467605200719
117.7183400960783
117.53549068719738
117.6301786902274
117.77249460564295
117.6537927288579
117.32865302898153
116.76786567085665
116.26702113869268
115.9017665360181
115.87939986404491
115.98304574124424
116.14591707132936
116.60536330367442
117.14035178720175
117.41517274097104
118.00778748625463
118.53948670375762
118.92058379938749
119.39780228020572
119.78377907568607
120.10124023247981
120.28191475161096
120.18784808438542
120.14199830808747
120.25861055570525
120.44427710668407
120.53887105563355
120.47140047644392
120.15065399397196
119.85207018831342
119.84747307168978
119.57535587532
118.99581112420347
118.06380017199331
117.15511742047333
116.58802530024514
116.32753960947245
115.71713659062719
114.73630901481785
113.54345766282937
112.91868681878996
111.9707467001857
111.42039955355236
110.69096760423032
108.51404038120485
106.50978502747405
103.58370569894737
101.6357232472575
99.7492586692939
98.81638676297598
99.01479700667015
99.68262393897703
100.13077914153551
100.16487468793572
99.41983071136438
99.12615584750927
98.23887770528584
97.63157834256792
96.28215596851946
95.29919918052856
94.32891554186685
94.81788644199906
95.32402974057408
96.05306959642553
97.0334510968766
97.51698988384597
97.34102926087144
97.39976176778505
97.44849117356175
97.39000340044639
96.98757001299303
96.30756747445135
96.04551084746326
96.30365446107412
96.498115830668
95.62598463472808
94.94049956892162
95.17667550959582
95.91795543420716
97.21609759135853
97.04648266763581
96.76659023055426
96.42785884248663
96.33611184768397
95.56355613979453
94.62666494405431
93.13622177325419
91.52717557863402
90.04850466382636
88.48638237440608
86.3760013850269
85.26929845511641
84.89900960353123
84.99090241947741
85.30253589116512
86.44722892677576
86.55058353978356
85.23590103926193
84.14739651517795
83.47521719275547
84.06004518011255
85.10198741093517
85.48775949794648
84.14339734903669
82.6840211398667
81.7001478144347
81.81068854231997
82.60642574886353
83.19795286389697
83.02627557469603
82.82993773499311
83.45202236012797
83.5836778363224
82.69526428093599
82.09247778768368
82.63245934150527
83.518487778093
84.21950057148034
84.92882888526563
84.23531262923977
83.78498100531951
84.96930186343633
85.44710822093988
86.58920400190885
88.0053689910215
88.41102703486003
89.1912686856255
88.38976778907875
87.37971769902666
86.48250272254924
87.03799382774666
87.0975587991475
87.93077861496009
88.63395854078638
89.24477173464088
89.60068536865309
88.53759633691931
87.47197460192788
87.59420021197393
87.92335737512668
88.72666731130549
89.17420624973735
89.20687925190121
89.34017661265379
89.45584489333854
89.35072240099895
88.09717122614052
87.94991303975986
87.21478044158575
87.2768149718069
88.1097164532121
88.684462593779
87.95552286197098
87.68980570209068
87.7681922338485
87.72695693912785
88.37410049460755
88.62859278832633
88.42397164474008
86.2608458089401
84.65833967919332
83.53338873433657
83.46227918006835
85.18148381479932
85.9934285638585
86.11378814180775
86.0716511346381
85.39801498974693
85.70577643033545
85.99192741958548
85.06572878652983
83.46355187896404
82.39291208502942
82.63662122854264
83.61227538272722
84.61287237255722
84.60611388464737
85.12309192963758
84.79413329441194
83.99099865008012
84.1298385291569
84.23104380961364
82.84615824027942
81.5919209116822
81.1796747436607
82.2414364801966
82.90258502478565
82.38938854384725
81.7495114966631
82.20319418817272
83.33543191007921
84.52120146881934
84.9096462901109
82.81836007207157
80.60987608547488
79.96030190662248
80.90454814080277
83.29780720573893
84.18167260854018
85.0567327613153
85.12948429662298
84.99453640819597
85.16561107889854
86.37307723828494
88.29731904964488
89.36593688526403
89.14381915068235
88.23169102960972
86.95422853010137
86.00034610009703
84.59252492515593
83.36643818242989
84.06636166847437
84.17366488407264
82.61230194609502
79.10923051873834
74.04199866836038
70.9827132363514
71.90647449761336
73.30619749196518
73.8294803344827
74.47368977576973
74.63679994431324
74.90430973929533
75.42574774643101
76.50297052324379
77.32262437801613
76.92679033530209
75.57137131504675
74.51254153537792
74.29188821354302
76.25139547038596
78.09216533483244
76.40567869245953
75.2590077778528
73.93949871180502
75.11780328424288
75.98546734917574
72.77987244014315
68.94518796319792
62.91872963983319
62.34756978478782
65.23902749436708
68.65687765034419
71.1444876088386
71.09675555296613
69.79356614363945
69.18445482909134
69.34522861759096
69.76996588446428
69.62090983126382
69.40415759181887
69.54380742809343
69.34587656851191
69.44653903924366
69.80138942882354
68.60030506843584
67.39133689777299
67.13260420505853
67.96272766677734
70.9390172502224
72.10416068516417
70.00236254008875
65.21012872839924
59.576303816697234
59.29221290760633
62.83932157045531
66.96240516086917
68.70399783755204
69.04754724213487
67.41650420253215
68.46041360971562
69.88609374259742
71.89406971026855
71.2224928406842
68.36889615985103
66.73320468158084
65.82819660396959
68.46701535406996
68.9639353454746
68.61085143671495
66.64756400159371
67.56614862194748
69.1545835810907
73.22108124222301
75.05641988785275
73.1603857087183
71.69818595661624
69.88594858638503
70.42480662802284
71.22126559399295
70.87269727290678
69.00062037632912
66.59836538602542
66.19129131219323
67.09757852410812
68.3731744011595
69.66870567792381
70.0087420379241
70.18831989175678
69.54709666305104
68.87002522860496
69.22899055142382
70.76449499816697
72.23421234127338
72.88543583977008
72.1407927618937
71.77023470340686
71.6933386861806
70.10444855461554
68.8273052753598
67.88890466498734
68.76745278213417
70.48402036685427
71.4596478356924
72.78937281515906
72.5339615931514
71.31077226715779
69.48866241677443
68.04226728002163
67.49804873966484
69.84936067657796
71.23572493852618
70.42212226697369
69.02007652911189
66.39231899510798
64.67451618663013
64.86677237341448
66.02319180670011
66.4004812469135
66.61251099660726
66.59801092386417
68.09411177988427
69.73081440219626
71.59583406723304
72.2466308838126
71.64063087383792
70.07826622084119
68.37581623258001
67.53022600889209
67.25782096346919
66.86914944975824
67.02106523338293
67.48612138717581
68.2495706139257
69.9776931606066
71.21018981250639
71.86551793571425
69.71292315721296
65.94088217743165
62.72461643232514
62.82359437161353
64.18861870985404
66.5878342572526
67.99846635374064
67.5700156300779
67.69889918480908
69.66884964229028
72.36924564646422
73.11303856014287
70.40759456047687
67.54305342578202
67.15952562022586
68.75712609726466
71.37552523382801
72.66498854062466
72.75806356908345
71.63335534272409
69.60164046677559
67.11298002127845
64.92000566104858
65.5668534754162
66.65254698195011
67.33396394708528
68.79821196565112
69.89071003572647
71.82609687772387
72.3356521176658
73.059937960828
72.06328105878616
71.9404241478045
71.84855745705944
71.4341692408041
69.83270413412235
66.87940138497298
63.860035153866804
63.519382413371254
65.41386431527508
66.74610795794334
67.57481081097204
67.17909078651081
65.62626987046606
65.10666559895765
66.36514048413662
67.96941801859288
68.58261159930369
67.78662169419071
65.71158588978507
64.01013501542347
63.78671591238766
65.19896694572797
66.33213829603446
67.48166449409929
68.5831365839092
70.27628768212828
71.29889387847871
68.73160854278778
65.75529501515477
61.75032517017923
62.46685656695323
67.23289227280992
69.02651195593631
68.71416646092983
66.36921432214638
63.07478066137242
61.979948197838276
64.06702429290472
66.12633512430186
68.09916454191364
67.72392205171897
65.51317362164285
64.29055743705096
65.17235216468396
66.92502111400371
67.00248964526568
64.75127051357609
62.37365829954496
61.86338865492213
63.99446660365574
65.69104391083813
66.13540476369407
65.24256030246164
64.29860854338371
64.12404996484699
65.28793663025169
67.56486602110593
70.22076374016828
70.63281559970315
71.41355094622058
69.36380989239402
65.64966503999747
63.402796174508985
63.339698520247474
65.7785909820594
68.96366608277756
69.89211831924914
68.59223852969512
66.07792322141032
64.32139786450288
64.52500008513607
65.20008116455837
66.03070835683752
65.09067869572881
63.566771879007916
62.99805457984054
63.387161757271315
65.55153559412109
66.57112294893787
66.35315098297885
65.93047278809703
65.9565951152232
67.37844181002295
66.3591535493429
66.205565576527
65.51508843328529
64.6679558027054
66.42306893709143
68.37445736563184
69.45136365362531
68.83791430230387
66.05354557212286
61.909016155195005
60.354115776683564
60.7464344884603
62.72554778035083
63.19395355664408
63.43971307005437
61.67355567031695
61.260300188066054
61.170383615913536
62.863024800276484
64.43971189581086
64.61604945785452
63.964652854919954
63.336049676700135
64.51932259031454
66.96200494792743
68.62348120553975
69.65439843383656
69.35038352696309
68.81883138544141
68.81239615000973
68.81092995818794
68.9453654335216
69.30590772893487
69.45881830871633
70.53410811617195
72.37334966792224
73.93721469011558
74.66119813809773
72.55746254685063
70.74654085727252
70.21719698565647
72.03902693585331
74.58843381750292
74.90292455734301
73.8433177324507
71.47276139484975
69.0702499079154
69.15695791063001
71.00354452237517
71.76316473612675
71.52622947696153
69.54500717207036
67.19350448021308
66.99565879444853
69.02414605263611
71.58198829751683
72.78040878321855
73.08440115516515
72.05328858721009
70.03835582541548
67.43389375783066
66.14773948809597
66.9881983262315
69.06522305177403
70.3079131393373
68.13035302109591
65.31307052927785
62.60255579201974
63.28299630288732
65.14850499547269
65.19577493838351
63.681804488702156
62.40923860644148
62.87343094812809
63.950222890207264
64.27725310028625
63.52341518353551
63.99460547114105
66.11025050906142
68.51707735414536
68.81160741891371
68.52343903152487
65.74411592671736
64.8151359661158
65.4519431653556
67.27842563416431
69.08883600519003
68.7806864836572
68.34156123746143
67.03274776967274
66.23860500218454
66.76639332314531
67.43817903938115
70.13344606705097
71.62898747602759
70.81510433904575
69.81303343901787
68.41997753408077
67.92215715247843
68.444895590438
67.32888175857879
66.07187475211907
66.4794114602249
67.35152343512944
69.7281189041419
68.86221598233077
66.8069908393601
64.09909931533018
62.671625213291335
65.19290904775762
67.19722955885287
69.22173156455335
70.83297478172352
71.72432943127484
72.40221661017083
71.78314269851226
70.98911039583595
71.92464442785408
72.0563973893334
72.65791974880456
70.6008878910872
68.63197130330533
67.39704165613321
67.05130682317979
66.99703846537474
67.53787889353424
67.93217881171802
66.6509258249007
64.2645821622832
60.106645774776005
58.0850439964211
59.185260997055515
62.06019816694561
66.98066019368932
69.8111762158797
71.04952265883648
69.63714250610668
65.97395498123433
64.47822886204165
64.3948835594735
65.57243871302151
65.13836474887472
62.325717643999106
59.20093320181417
58.86585627984609
60.692210548834574
62.52856148289116
62.948173163256214
62.20485232241894
61.25368654557184
62.65233996737117
64.29135484547695
64.7663295796897
64.59719725803578
62.451797972343925
61.46101034747013
60.89625797883006
61.31090867557959
62.48477283466068
64.09350823674917
65.96695345839768
66.93073061959083
67.50713257459438
67.81654225911697
67.86508658666651
68.05099615554137
67.9010249093895
67.23353997668919
67.55146231802357
67.64591311169103
68.04204510144609
68.72751670889627
69.86324109390868
70.88796654073523
71.2493034525159
71.34239555142557
70.69316973211188
70.42176400114928
70.5414825757918
71.45288686138798
71.84126284472723
69.25167996210297
65.60069810997126
60.603042558453026
61.614204112530835
62.818520717147244
64.03916333611878
64.6038760773493
65.60104266819909
67.19662306675687
68.58058963580432
68.94818369669039
67.92793472588104
67.13117442053749
68.26879692342223
69.9641578600031
72.02165701914356
72.55466539718425
73.26982010294691
73.2384691690164
72.20557380533543
70.60133304833104
69.83470358013203
70.16695959949399
73.2897133846573
76.4545361143928
78.86366601454266
81.19549745553005
83.76437333805015
86.64471166899924
85.60134282026196
84.19547087133452
79.46187725904367
75.99459829923254
76.16664839362231
78.54194230712011
80.79333455514073
82.55753635858314
82.65542047627366
81.63204675727127
79.79360790028639
78.2535462851324
77.81410954111979
79.09872124035508
80.85002616213376
82.17980789895154
81.97738958126625
80.42536330632598
78.43962255493494
78.14455756647519
78.56058267933687
79.9056993908787
80.94214990077352
82.23798221656122
83.72167015139892
84.09561228847787
84.29340962157929
83.59511034781272
82.45331078525734
82.68556512181307
83.21329924360734
83.33759756544228
83.16362767592037
82.25236569890599
81.58826900032653
81.67026047420855
82.12725588290445
82.38419810712678
82.13015573743894
80.93485613949551
80.35158581837453
79.41430348143362
78.37844507117657
77.55106067471573
78.27131728378916
80.00858845275376
82.20754535851276
82.47045234912113
81.57961562324063
79.92415518488978
78.8664980131559
79.28879472798876
80.28011255766268
81.64985705113709
82.73630426555003
82.33651607776295
81.12104400740745
79.95621034410382
79.6284536555806
80.8168724217907
81.80616435701782
81.99376416641448
81.2276521410663
80.80029182738944
80.1481131930225
81.51134882052469
82.03187492722682
81.7260317012673
81.16937845739997
80.18578542070685
80.78709561105944
81.09146711219256
82.26896631419513
82.17660281744791
82.51591012902546
82.59505916249059
82.0289252554221
81.98175541509231
81.51612494175188
81.453993845138
81.86129584241606
82.22961353220467
82.84306454656495
81.82153359896873
81.43573937133847
80.47635580500844
80.98905131890713
82.37351208063708
82.65779934048622
82.429821765726
81.31225988998003
80.9067265062376
81.37750688790439
82.43197580283079
82.8158940161739
83.55886680970822
83.58823749313743
82.81457553386448
81.88305950479197
81.63860279043179
81.91306887733595
81.4401157294649
81.34458529785599
80.09064650001936
80.21800554258519
80.7088206726665
82.11351326367411
83.65313000636262
84.96415597613766
85.67434323051812
84.94251155215467
83.61433291342013
83.65074084159366
83.65190397314419
85.45694130825727
84.83712806285149
83.60767776614314
81.97659219728912
80.52225011111344
81.9639402749627
82.88323670771078
83.23369114712267
83.0903257778241
82.99128039480715
83.6173492692115
84.34970483564116
83.10984554971955
80.95068195624616
78.00580225262537
76.61497709347167
77.78452194673176
78.98554273469617
79.93533059717697
79.3382984768864
79.0725908825155
78.82074151300503
78.58416676903555
78.73290574999638
78.00914886600354
77.98806062553422
78.29371984750131
78.82215352972852
78.59081400804018
78.26838445095095
77.72284822155585
78.3477719999372
78.39175817617794
76.21848728008042
73.82261126291647
72.35080205773494
75.4525122504438
79.56393810218863
84.19522788397558
86.06238072773645
87.51153565825435
87.63875256946166
87.6503756111041
88.53205319786164
90.98065342465894
93.49708500188355
96.63613400686553
98.93311788898069
100.43741690850447
101.9931290266729
103.08477909270694
105.39768069047123
108.4346285956365
109.90338033937427
109.05881055698968
106.59528890306727
103.53693852334455
101.45254541758283
100.1709784490724
99.19822457619803
97.76606358805682
95.7901732094091
93.8432804675736
92.01565617992394
90.10089021514766
88.90127746957803
87.47098397730471
86.06711849586104
85.92966091613948
85.9609670887476
85.65115849316634
85.28306627854951
84.44985290389425
84.51753011736864
85.94252925510877
86.06722791979887
84.46176265848771
79.38217053720095
74.47531810865952
72.1632569671999
73.0380675440361
74.39373793741191
75.54861498811883
76.12254580478546
76.54642286249485
76.76439144856732
75.63046682232903
74.87493901420456
75.40890756984587
77.23155817846181
77.23055400603529
73.49903701981543
69.65808197317193
66.30763212435306
66.95743933295472
67.70364219936984
68.86788725411716
69.23171265413134
68.94299252336563
68.70967854426898
68.19223476656931
68.73712677259024
69.68811733869185
68.81388608944883
67.55438923074138
65.5027219946933
65.39552994722897
66.69885264469352
67.0528107107813
66.70878854420481
66.37972001438723
67.01877975976736
68.89230859917464
69.97197226303304
70.87829937325185
71.27736823178446
72.64824254664845
73.32002249420742
74.69813114241167
75.07462971448129
75.2737131750266
75.43192904986215
75.56803111014312
76.17460103363389
76.71836938170011
77.12958560808369
76.3050266832575
75.71750530876831
75.55307583490054
76.7283996141405
77.49790035216236
77.45785010490764
77.86160261074632
76.78660200607082
76.78742755147937
78.16445229218208
78.54940149184033
78.88584529494108
76.97999359572442
75.54059881926072
74.5034443296817
74.89990084936412
76.67481652888961
77.83704143127291
78.31072132319183
77.6296231539273
76.96138157827322
76.17231527485251
76.50250708280433
78.01458362014381
79.35664176189673
79.45603687567555
78.31662985997595
76.88243410473306
76.77543066078802
77.13064413428107
77.44022975959132
77.37486461916153
77.16271916053789
77.71286366289004
78.30012517800226
79.02494878147921
78.5290757884354
77.8563625206696
77.22442106430243
76.84447084411318
77.27314451710787
77.69087272280767
77.99557233279765
77.66735889547957
77.3427425363866
77.90945039237428
77.68993747060932
76.92258447591286
76.45170740470823
76.28239251574465
77.71914442808881
78.30900776430764
78.06583890570532
77.38072773704569
76.79009563858159
77.59108675907336
78.59231769683787
78.7092656340477
78.84247979551627
79.45724503322838
79.57515815167906
79.11146233315449
76.37815176545502
75.30754777330597
74.8795972618864
77.18793033639784
78.05109440923779
76.77135888435481
73.70250004808537
72.43982811380025
74.64575453895809
77.16225309861339
79.29488935676426
79.08583435561283
78.49000102423777
78.43856220131495
79.79471845008209
80.41615178864433
79.95566325495523
78.96306767413509
78.2976643437143
78.18996193335326
78.61759207106505
79.11342299676204
78.92574523533469
78.28505890002457
77.87996373153351
77.72347204081024
76.34687436315633
74.94606285810592
73.17151566435766
73.50615823241343
73.84904260830595
74.58685571021768
75.57699518970016
75.55808046059164
76.15840028929811
77.13407809827486
76.85216047186084
76.47102535964841
75.57264477059867
74.65575505993614
73.45590651846828
71.9021080574872
70.66183951020005
69.88189859958933
70.07113610592623
71.46536242701073
72.58544884971039
73.41672720477482
73.6818832440973
73.87212015079375
74.02564375132334
74.56147850054423
75.13220489700555
76.01209804612131
76.38702290016595
76.12420456428383
75.38511331441481
75.32611466299704
74.80318373249858
73.88531338946366
73.32474049372466
73.85174216836141
74.18059675784679
75.14051503927664
76.47663966621808
77.19183176147104
78.08519795418765
78.03499722986653
77.86307187394095
78.42851264091928
78.94508258940002
78.8004643847824
75.95288164023457
74.02180288392563
71.56918845271792
72.42994563864613
75.38085196859487
74.49195453001524
72.9804847815309
69.51124378535721
66.50460010179327
68.26907517577834
70.09339622657555
72.80371686083498
76.38764778791528
78.21397285502397
77.77556662036349
75.577265838869
71.21418742563276
67.71953071451262
66.73741593541263
67.86149264723723
70.06353851465336
72.122710516532
73.27889958536115
71.92956880735414
70.70777993634047
69.22166447952023
69.9380266926191
71.29557004112637
71.5011328216776
72.07283928010156
73.27466284085045
74.95448477010733
75.67346800990462
74.36946304206842
73.53098938022984
73.67338489561422
74.04051866157111
73.51169767478268
73.08249256913791
71.93475548850981
73.39017648017678
75.91500528927925
76.60601840995918
76.70066345637606
76.62154990986717
77.12275179877622
76.62489386494886
74.02397716931651
72.28224932219543
70.23157652884767
71.47381593138071
72.74270835336988
72.25364184373599
71.46180374336664
70.6159680572466
70.84804902695251
72.17136701067558
73.46458711254357
73.55354300265124
72.932765773288
72.81228865272972
73.25231508252585
73.93254465122061
74.4444056898231
74.13172994929363
73.43161798924376
73.19804134419138
73.92754774446627
75.08669384679622
74.8517508499468
74.61553603349347
74.24599110233467
75.32824360036767
76.09127584125751
76.24545129944998
75.25529680742486
74.94458437294516
76.12714341388461
77.82854950882052
78.51993670039707
79.03592175971076
79.49713331561426
79.66230569941234
80.15426604495485
80.56335046948429
80.5937994749049
81.3780614014668
80.58545396467392
79.14274690038852
76.42851646880327
75.62236134375419
75.73160326696856
77.29643474401486
78.55664199998819
79.17737891917233
78.6223679367725
77.75845408409317
76.95351672409404
76.63723204980913
77.56068742046115
78.17433283383244
78.59834188703555
78.70669808748535
78.62638360959198
78.91091173263061
78.68373316494122
77.98308146080309
78.66589612148144
79.80298801209304
80.69854799233998
80.23704571718012
78.67728742730253
75.69634477920602
75.29934876811119
74.92619991272285
73.73536790887675
71.97620847750198
69.925751527871
68.92185434966336
70.32336953027962
69.96734174829082
66.18610074860193
63.28555521631664
62.18030590346592
63.690592363842455
65.14202274066693
66.17124208558195
66.3935415752354
66.88961170152687
67.65530070719262
68.43923886408814
68.24915558724457
69.00881998610143
69.59983949321199
71.02941274982203
72.40310679073076
71.25278629008415
68.88482775310005
65.02713940791381
64.88109345103649
66.46845942996205
67.18825050054372
66.41283925990605
62.11667156952916
59.4556466857748
60.05620337838887
64.0586584056201
66.9790499535519
67.3594021177231
67.72550304519514
67.61019407785267
69.93059521735091
72.75940822780532
73.0752159120861
70.83627863123098
68.47981219411703
64.65663188429292
65.42636527268145
67.67670120381702
71.05783719187458
71.90240238861676
70.1415017114833
67.1420743204558
63.430945035048815
65.97687732931531
69.02932555596294
72.06110835864772
72.21750246337068
70.2962920202502
67.67290075350655
64.93167680974399
65.71148175083528
67.02751876347786
68.5337695218835
68.9219657495834
68.94567922381931
68.70481903330904
69.87029962664107
71.84803043293726
73.36904257268013
72.9078827219521
70.28346470828285
67.99310761572286
67.14251195227847
68.81211226466056
70.48622436090578
70.0734537190304
68.99822856936485
67.58215662588157
67.30079820769413
68.76659809570313
69.03681480737751
68.76509168736138
69.00319247487027
69.75984538728011
72.68435439941014
74.17440645287374
74.24289489500205
73.03933804231777
70.9297360368552
70.27349389441241
71.25074581799821
72.42439414141937
74.00790472586436
74.74061330327913
73.500136704906
72.36645699301808
70.75743161429557
70.89264637468403
72.01209695563116
72.12378417695943
71.36337126772746
70.17155980437524
69.75851509364223
70.63944122371993
71.55320158668411
70.58321597566264
70.25280691744179
69.82491621563454
70.5789734373706
71.04542360528541
69.9838183955718
69.19433590457395
69.8056070208979
70.7099612143221
69.84103845224247
68.49429015057316
66.32284003260405
66.29710421292523
68.88923333847859
72.71980495402654
76.27105938711787
77.05413083428293
76.45784164915482
74.08026049263388
71.71592507560692
71.14149329417906
70.86399182662895
71.24072833316364
70.46964087119528
69.08469254254464
68.62349422708326
69.37505708999919
71.31186610329173
71.97351971457874
72.06014957262849
71.92235254948069
72.20571664805901
72.82761203147533
73.9405208730117
74.29542477025616
74.58081940301038
73.62136468249372
71.71896256102109
69.9096489335113
69.52758535022744
70.99728588293637
71.67858385311297
71.2420077891243
68.97178832330899
67.38814582572107
67.70029322295181
69.03675606518806
70.96700519545672
72.53225456403247
73.4505178079101
74.13422529062655
73.69126418447074
72.4340390538059
70.93398796699991
69.52863305336125
69.23127724561427
69.19271121509817
66.98414313835102
64.86199997372246
63.19355688153812
65.10014268452332
67.24273811316982
69.43922540140022
70.36148661193826
70.9251807535417
70.34413656223434
70.35973109179696
70.72930699401769
70.62859564292529
70.43700588586111
69.5486767384616
68.59067457436825
68.72211919660884
69.13715599227129
69.03483472918697
68.13050339796132
66.14733152591306
65.92529097066634
66.57018121928505
67.53078159554256
69.06883720173697
69.30622188861567
69.18449447147037
68.82498123571756
68.4148726463085
69.02423221948385
70.35895388627665
72.03774049781866
73.02260936855424
72.73324645542897
72.12770171321243
70.6929250176997
70.59887097567099
72.45708101343402
73.07660730670332
72.06599716603753
69.52371635217128
66.01236380972801
65.87717182739546
67.3840888717256
68.50392302028729
68.72039766985418
68.51835615474218
67.83204342638199
67.92923240135792
68.35322175529612
68.94206422005314
69.88738373857186
70.16283788095195
70.70699049785036
71.58183500478964
73.14936954967217
74.52306732824029
74.95639603570798
74.08309660034033
73.37841461771647
72.07765865072491
70.96116271561223
69.74575273669717
68.65540156028418
68.50231749348615
69.1194754655879
70.29333039597172
71.14313817432337
71.5274553845127
72.0506128306468
71.69680388619403
71.64859806659825
71.22770637668441
70.87014252730923
70.72694815481469
69.76354386101453
67.69271213415762
66.71091424178195
66.69550040800544
67.94561536755089
69.01736172008714
68.74952937456715
68.20601212170054
67.90316578405519
68.66755823487144
69.69570598870467
70.27743409209064
69.26584692046828
66.64902774835402
64.1707967617416
62.602403919726385
64.654786480088
68.06555945445353
69.01016501701459
68.19383284735517
67.07777527333229
66.75241577868707
67.5610230358266
67.80071106607424
66.7570032289066
64.50721790303042
63.39349679398354
64.55246301658603
66.18426586197369
68.36731260232789
70.29895924934523
71.05782681020028
70.24100991151415
68.49151506758996
66.23239200105749
64.77222315508365
64.9646393461668
66.19764993690802
69.56136954522547
72.44691856719594
73.4952026654707
73.27081189983818
70.52666443675395
68.45282020820581
66.70579395704624
67.79220548043787
68.40308016867087
68.52489639852162
68.0820384903176
67.95986780602303
68.27913667808292
69.06603297172151
69.70701729994832
69.1719808779078
67.77014389034565
65.30795237822744
64.69697036860777
65.71627905714885
67.29501317542187
69.92658745783939
69.01696213892464
66.58839464580015
64.43058155950092
62.193783979579514
64.16284077489004
67.16785913978075
68.04375009769998
67.78663378800847
66.8321943820998
66.46278686446718
67.44984082562465
68.23301498503507
67.28870686303742
66.21046407450771
65.20268766125949
65.72807940959972
66.21089836487145
66.4110637534268
66.6215624048748
66.88414537791877
66.6898684991962
66.37329910643155
65.25141429352797
64.82912609582726
64.87871653279771
65.5218081535763
66.88711105821866
68.11268885935038
67.51802089118976
66.73836286793681
66.33420392178577
66.84635938381092
68.65689546352965
67.62402093275273
65.82148752526948
64.11931955721197
63.668768095467904
66.8051345600187
68.46858630525216
69.56319865261065
69.13966924084595
68.19330790933736
68.26562195892416
68.51480999375634
68.24939306110295
66.75115974084896
65.47747288155139
64.94338480440217
65.1901714388144
66.15416791292307
67.29200227013317
67.27999819153646
66.58527912272426
65.35513501825127
64.23774339149568
65.78352088800271
68.02239692791375
69.13648633198382
68.36896767232236
66.0112716396278
64.37951133302253
65.11668533712708
66.18380937840246
67.90832995279479
68.89359691846147
69.53348996322742
70.04821560982789
71.34534724640287
72.73506999629859
72.07371911232745
70.98894880113721
67.99352175101284
66.86832472581581
68.18253238779641
70.16243775474513
73.17150277001313
73.91908778894
72.9990112084876
69.81901419719446
67.4299342880207
67.89264467517239
67.84954335011452
66.34300731543586
63.21009085851426
59.84056717430283
58.0763953535727
59.675018382574116
61.30486151976091
63.93067908015287
65.96673695232187
66.84612501297674
67.62436496059891
67.89508725561416
66.6133561778165
65.05613670921527
64.07647418258615
64.78989739278366
66.68555237099405
65.73493059737217
64.66229996443312
63.70030647266861
64.47198699498574
67.74117783148446
68.34425895400778
65.49396468118485
62.56452874207625
58.72498128927578
57.52851614716126
59.03471087733312
58.74863119955962
58.8799085571579
60.720638623457546
62.00259407368962
64.52035175045097
66.60582763443367
70.1774963598595
71.09637667981838
68.91294133697076
65.8782984906303
60.784039164507575
60.333493533403775
62.04525529189449
62.2845628763668
61.112232935196865
58.88811577379405
58.24659581851678
59.580979038593114
61.65907921971406
63.81574772422517
61.88243594792329
59.697701047530074
57.59931861106601
58.06955873023507
59.016413518539316
60.33315001106109
60.975413539018554
61.31983375017086
61.644313425653536
61.16035430044136
60.440976595417276
60.32504352744185
59.98043652506298
60.63986074640315
61.064210692845904
61.75122858846349
63.10879081211403
64.13610342550182
64.56547270006178
65.41157220477832
65.24740989250276
65.35126805387753
64.78741107204804
63.88383180379927
62.921775445575705
62.394148839951704
63.412243042620254
65.3566902211526
65.99356378523859
64.93258811637823
63.388905015735375
62.87799617262109
63.15381226930802
63.661167507712904
63.15121998980227
61.101238727532824
59.59814650511642
58.862684644846006
59.39641962976117
59.36962546684042
60.037499043260475
61.064454637742266
62.17225576616066
62.3008377344181
60.658761625862965
59.01203265887256
59.050445011906454
60.99037035213054
62.98941747828629
61.81115502570658
60.902876271667715
59.672031503703124
61.03376775727728
64.50181178025014
65.83694064182961
63.77232122051376
61.6857059300454
58.37784973840217
59.36309601507404
61.192235965166795
62.12803784578363
61.32034986847024
60.95036333265333
60.30095823843294
61.0633274054804
61.83606966090075
62.76788799186886
63.89822877121804
64.72980640644225
65.18770569465937
65.45999007885422
65.89053593676009
65.01504590547168
62.12410435157166
59.288645003079296
57.42708214064366
59.212981554006085
60.853809580743295
61.85016291117568
60.18258329499268
58.21878110023648
57.18458866049839
58.48932711573702
59.01047081232848
58.885924224682675
56.39553287785338
55.859674821012504
57.512369726196646
59.12756747740706
59.97014801914013
60.233151761918194
60.64534844073044
61.68068797794743
62.411987714010266
62.72930147049319
61.971482711470806
61.65552918196314
62.78928522994996
64.76943641712946
64.93810462877198
61.24640318180287
57.6547524760755
55.68906977747913
58.05947447280072
61.48703961418174
59.488958558950344
63.00481615352661
66.08208340615246
74.65148180692344
78.9691899756886
84.26236943026429
87.39460278518506
90.12112977734824
90.50006168279378
87.62654710997597
84.50513963582871
81.08337580530231
79.19519751126339
80.52640930929317
78.8957634814391
79.69333608551483
80.3228232331611
81.488389087468
82.59246689184997
82.94684512668805
82.99532062666584
81.81777712802997
80.38394161920652
80.43640437443293
81.01528703247729
80.305355777659
77.78008041473663
74.30127830458817
71.22975524463077
73.3046365892296
77.36135880032863
79.51264038829603
78.54157693700341
74.68488495404931
69.2309445830968
66.60859576062
68.21371439798358
70.55364908654748
72.45891333947353
73.164045959863
72.57711073703746
72.11856807656099
72.68702063649842
73.7103389939112
75.51356689063067
76.10024489197788
76.6092909445336
76.1640416683738
73.85024295908578
71.86047707414592
69.93848724088886
69.0719517851326
69.94565632054156
71.35307263367284
72.16218685099038
73.25691838262156
73.83199406539377
74.39068119045375
75.49728614484758
74.87184207063264
73.60634994951428
72.19271294489872
70.95170125468837
71.27731686925432
73.11582154233429
74.89884218293685
75.91940672767838
75.27811105306836
73.32349061263533
70.86459283018573
69.60946924870595
70.86088484371177
72.09894819933764
72.55495169180048
73.37469313035254
72.85263704146807
72.62176500824273
72.38490199803253
72.31149144926988
71.8147309009056
71.6202324131738
71.7752596270879
72.69258592176342
73.37285321876497
73.60806005286415
73.58256007658484
72.8195046782063
72.83552445636906
73.01244722105831
73.70903212071933
74.08984885077477
74.31337846087176
74.77110637217775
74.83414171108201
75.05262626808863
75.24468482495298
75.1938476284374
75.4830411938661
75.40742454005427
76.10857073833026
75.72945969687818
76.08848694621173
75.37193221005312
76.40627639689949
77.86796700681194
80.35013361907065
80.21463354478132
80.29598899670674
81.1897125867427
78.54386774928501
77.26254136547865
76.91808905456337
75.9403076436927
75.95604935075006
75.80414849453416
76.07023787771384
75.865981193872
75.62096771501534
75.03950790088655
74.93248969031839
74.29855024176152
74.41656539467681
74.6450249516124
74.52939818541466
74.6503986762907
74.27487450674559
73.72963120613605
74.1272516045583
74.5041849053731
75.17303969467709
75.55997413131425
74.17866032583066
73.26519744201212
72.74632732074897
73.26310886297561
74.20599558845204
74.37669894959475
74.09761239948986
74.05459741798633
75.45727622651123
75.56766792002027
74.76974545567185
72.87907073180082
71.60752344647682
72.33102061709347
73.51170936584766
74.35705831081229
74.24613737015795
74.01929311422231
74.65129320960165
75.48031916942398
76.70425611096027
77.36512686499144
76.8482867609186
75.01196918428775
74.42138784836956
74.39979064054758
75.22155273208561
76.81937511315778
76.01172961267154
75.18700033225092
74.83805156753304
75.06840000864746
75.28068125541148
76.15620235037375
77.12238854451459
77.48684636464606
78.60192543289148
78.75762515776003
79.27667503741925
78.94898270283741
78.46976074190282
77.87046864231442
77.27566572246656
76.655767889166
76.85397369331494
76.82813723560393
77.28437529247822
77.1401113641922
77.23364411610999
77.22190855956451
77.32876401454847
76.64457816511874
75.27204278624251
73.86061010646655
73.53496080998121
73.77998028607087
75.47919573031949
76.03667329852107
75.8539237233249
74.93131420233232
74.07226368608501
73.44578100400174
74.03842007922785
75.49713851041373
77.04215485570114
77.1686199812892
76.95054027990115
75.60671153383507
74.38269985072101
74.07377384703767
74.8527659630004
75.86860731042233
77.06252545110137
76.74547502598624
75.54738082910767
74.38214569930423
74.35241058760192
75.6843105757226
75.99982221949014
75.29286944807801
75.44715217116807
73.7944365888668
74.71566209922528
75.38435369844119
75.56671749244423
76.07826153273727
75.50143184523577
76.46576991195121
76.82597126823144
76.96453779346162
76.46978271081228
74.23135871886342
73.5447054056362
74.1955291915229
75.36863801532013
75.97365644521672
75.67353920393771
74.7698294226982
75.05607719056874
75.10856735332533
75.18607271056797
74.27582544016781
72.82641242152258
71.9164287135566
73.2583765279825
74.51394308908152
75.07357539875511
74.41058600155527
73.80550930144831
73.77617759690965
74.47407291317604
75.16496362993848
74.85937401120061
74.17784769549318
74.32789328513128
74.58102554957085
75.2432488744109
75.73597573543294
75.3194203702361
75.28649907677729
76.2817751964701
77.39033032674297
77.252797338718
75.8361753179757
72.90869481406105
71.29928205907862
72.66879938425102
74.64397680536457
75.82093146482794
75.69235334539648
73.16474372826004
72.72494561832907
73.75919144401328
74.76572639625822
75.006160863624
75.8329451170585
76.20155761195146
77.15970225582952
77.36816761390338
76.40078534621918
74.95531030991573
74.4408324843335
74.53482741992642
74.86769647883195
74.63435894710786
74.48121853461038
74.53099179772188
74.66318997367857
75.0831879702562
75.20056439729757
75.42302916326845
75.29431738947761
75.85677742545549
76.57686478536085
77.57412893757525
76.6907025388416
75.88664808030684
74.9019967885353
74.5811250280374
74.96037043810718
75.35894985850274
75.45453988950176
74.63171817595922
74.61702149446991
75.23484839645819
75.8716694491126
76.26840035832342
76.66419894961906
76.44134629697095
75.83951808319009
75.71838759238729
75.83977107762134
76.24581231420939
77.39005508420841
78.02865553795057
78.3145817466814
78.51202496194051
78.80831964362272
79.34976481995133
79.27642842732635
79.5866450153872
79.72000088068044
81.07964954768636
82.4769082497837
84.60811895382412
87.25977491725763
88.57433685867713
89.87337879202784
91.01909270473078
91.03175665480525
92.3181545192989
92.489875233027
93.83002506044998
94.83834029137316
96.39188594271593
97.33275273304918
98.23958717305455
98.38687817471629
98.61455455353884
98.02981618833864
97.58561310672364
97.4899347461663
97.3381374731879
97.02292911112302
96.52817723575863
95.91089857287774
94.73653314826782
93.375831717901
92.71194271991517
91.9029138566854
91.40025467207393
90.7313712164915
90.36285928536537
91.69900262988996
90.89301742985903
89.4313789522451
88.39053303184241
83.86559228587852
79.14303305621335
76.03861036080787
71.79336597585257
69.42978212779333
70.5439727591253
72.85130139086125
74.19656794119965
72.87803280740994
69.2679731359176
64.26471666250507
61.277501376680775
59.770673850834115
57.96689825491131
57.47115283077183
57.346073977394575
56.46315097183505
56.01804237163892
56.82803504305299
56.09212031112133
55.79923004315601
55.52378048338945
56.08996270880601
55.80767847780738
55.048087949508336
54.390178070957376
54.26104556348889
53.42361563619878
53.27711075623713
53.450773528756194
52.77138470966934
52.747838553787254
52.0924145035294
51.43034382958979
51.84782571397047
51.8823437259854
51.74198586095804
51.55946604452081
52.30656933692962
53.026888235335726
53.97730626896459
53.95658649356696
53.689098290774126
52.819881439049134
53.66178663822134
53.31890150289827
53.23072066811758
52.580184113847
53.30956768389387
54.27238308894036
54.42989505985014
54.954805848507526
54.08394542155778
56.0550966960827
56.07371815952202
57.006577863224216
57.553430373779996
58.70166703221331
59.8714849568961
60.09069188761747
58.83361711087435
57.0721836052558
56.24765656751989
55.161369687733504
56.08781192382718
56.44030221665786
56.110635843459875
55.555322446393745
55.46968362394568
55.52691777934112
56.22403631110461
57.04435651097151
56.34258572846472
56.337570610316675
56.7234671216719
57.301207505399866
57.5789406277032
57.250115620065905
57.343594521906304
57.87943698702065
58.69722961990322
58.96325439853725
59.148691879615065
59.71324036098884
61.32694648358401
61.460019852800805
61.2112391037778
59.76207147729104
57.03581855143674
56.17694984472007
58.34888977444902
58.221932028446126
58.14420856981671
56.66655219819787
55.406670889626994
55.39578764148531
56.09748134142066
55.754320652215874
55.716433526982684
56.27785068897004
56.62367734018155
56.45197416243146
56.06216225329821
55.06949739741642
55.34636873174781
57.78857518353656
58.19402023601483
57.28572711364796
55.51400634811585
53.79455578830815
53.767782689874565
54.90812263275342
56.18956357665866
56.00238267602697
56.26310734376276
56.34326928859082
56.57479924447283
56.081023260088834
56.33223056516915
55.15404205542263
56.393135736020035
56.74559221296294
56.66930120809104
56.12502080138443
56.491764181498034
57.174914557814155
58.9370025969254
58.715115930984375
58.33304826527135
56.0131766687658
55.5921557846468
55.2810034794193
55.87978699004049
56.43779887809289
56.33747552656642
56.18590656803533
55.12962475528972
55.54414693736425
56.042611311086766
56.803227831585346
57.385228443228144
56.95240761554566
56.17818439605137
55.91977000277552
56.031327343248535
56.147245497369276
56.753661370201655
56.2409321690336
55.6938449631802
55.26676100414103
54.867319666727525
55.02559888849956
55.90963484702822
55.55951637787305
56.245600246432154
56.55944270097597
56.7837856964891
56.75436942430895
56.7386054499148
57.12247586062744
58.050896496012506
57.82459681250831
57.64716599604466
56.72373891462205
56.53965505092276
56.61428596406008
57.68745278974358
57.636266190662575
57.22641540107481
56.3904270303492
56.45437202578493
56.38208547669429
56.72304436753715
56.80730488021266
56.72564688004274
56.68011230412143
57.20825070397136
57.68788880417482
57.90586338475695
57.864146122630025
57.10739457882922
57.240200635546444
56.69030524426577
57.327004768845455
56.74836385156486
56.60123429438289
56.933268009666975
57.43580344944082
57.835178351190976
57.432109982982865
56.849012007370625
55.612893732024666
55.75557711285931
55.79908628424914
56.11335365663842
56.06498822287123
55.75772304840643
55.240784395240375
56.3127984061932
56.43714804544853
56.71830462335174
56.52418791957714
56.22329105924839
57.84604083057975
60.616148860744424
63.37289968105169
65.08971238009201
64.68122018524265
65.13696765380485
64.98855303875065
69.13037154192982
71.83988656138473
71.57913362680785
68.64549725559596
64.83277649521578
62.46972446572899
62.78846313309636
63.217032583476936
62.932620860160625
62.69368920393764
62.780291052897354
62.758912430232115
63.36854227596491
63.49064466041161
63.62036932650653
62.92821468762213
61.783558475664044
61.43662428935947
62.46441127403138
62.93824132372545
64.14178145033299
64.19103040379272
63.552240010938114
63.7209686960472
65.37436444294451
67.67607347323028
69.97059842797097
70.02023172719139
66.83851736118379
63.992337779193186
60.96258613034859
59.53017911314176
59.36082884574231
59.13669715744546
58.636923920429254
56.955697437749414
56.10094921200977
55.922694037342104
56.65255808107371
56.92622222967752
57.32811497011318
56.791453909836456
56.923780075896325
57.8335750042065
58.4644835877058
58.42538006216363
58.4041232603909
59.77883801939215
61.335992118684274
62.598324902212006
61.122112731486254
58.21470305309033
55.314798805563605
54.46180660544121
55.815412963338375
57.41004037361339
58.24782683683073
58.632452929255805
58.80618125783476
57.4991916268031
57.56956061359928
57.446048929393946
58.580388013349705
59.07480921841046
58.47689109499216
57.55255971473954
57.157944896117684
58.39521489780855
60.37724883426131
61.11794719847618
59.73339358662689
57.10370226729789
55.439631944927214
55.19906955594869
56.41600982901031
58.3449502375961
57.965927074705654
58.00089183799421
57.51454548585739
58.4476124671916
59.99616605531498
60.78791224607135
59.65008057297707
58.18300383637508
56.35632116831439
56.91822981982508
59.44182198639228
61.53083018109089
62.26769024242789
62.2002430388247
61.15891346728607
60.68167749255845
60.9518391511824
60.48245351150971
60.47135635763981
60.18671814371611
60.30670683214794
61.78965513073472
62.99913551215327
62.273297953497554
62.62345834014231
61.316642072156455
60.57564925440284
60.088873849567086
59.74034797592039
61.61483487882308
62.062088150144916
61.804703405760044
60.79865187262525
59.726858539587035
58.30847135169557
57.81544825004166
58.77147365085031
61.32414537474938
62.85201019110578
62.89342577739393
61.95889749861229
59.85671433899194
58.29298109526787
58.435629543572595
57.59322030319543
58.08780449716485
57.344916949887825
58.01432173575642
57.86439917772069
57.640206295293794
57.662179487998685
57.78443062790375
58.36541567117573
58.016633612201744
58.21692705164264
58.455058787786264
59.14679804752695
60.31932615823276
60.265323193132765
59.14381359748395
58.6604091070545
58.5115910061624
59.20643257579297
59.491763234590486
60.158940528187635
59.400446617742205
58.041376533122055
56.886247418871704
57.205224010939425
57.087914559185045
56.712651923471206
56.61381493995776
57.48309553178846
58.170423803327665
58.26046413014181
58.68259765725784
57.33450529810932
56.897367422701656
55.751994865920175
56.248329938124236
57.01695345385169
57.39069482482297
58.22605050144495
57.912298796084734
57.889342306285066
57.8165155366334
57.78224662744348
57.84102146429854
57.003764021568635
55.91621444682557
56.38278554075942
57.52077037443758
58.505572082815085
59.02274327021731
59.32943848491412
59.01875285009505
59.321470058601115
59.94770796261127
59.745550026493085
59.38739042404437
58.77076670494011
58.41557331992351
58.36927666639995
59.02010705301308
58.89146489646936
59.10550395599953
58.49121914598037
58.41865049869818
58.1923145720487
58.743438642376766
58.72258233666316
59.95428817472515
59.49378511802749
59.938370321596956
60.31860048423019
60.30043074204678
60.27608024093375
59.262617342199626
56.98820651110331
56.164808640014115
57.14724335447607
58.098966832394126
58.196752167701845
57.598156011584024
56.89934522735156
56.8016076826259
57.028408924230014
57.53927076368228
57.97499721176107
58.57921309807147
58.90693199188825
58.63288925418884
58.791166771892314
58.64186857548801
58.83621796233475
58.442102795260844
57.964460259003395
57.792782817060825
58.47509904111744
59.42446938678928
59.824464340603505
59.37885983821428
58.67496429158756
58.48374986514032
58.99062219425692
59.16781016451027
59.01904461648959
58.593346630233846
58.51658074292636
57.605833655994594
58.02806067769751
59.11614788463285
60.08602360345663
59.75826299853954
58.45969992224046
57.85788320294888
57.27287341935641
58.73253596438895
58.92738927409908
58.94509383694754
58.41709057688468
58.174807088960975
58.697618790862485
59.566243092579384
59.54812267347994
60.263870834163086
59.91029179672143
60.85631549152085
61.53791284511651
62.52928229231419
62.811191726064635
62.38728163088541
61.16008220934389
59.083260232350554
58.54294810601145
58.65692116720815
59.11273774294467
60.38687784868516
61.14048386590344
61.21088266963221
60.63201571106135
59.983752412045874
58.77634372369299
58.13091463242391
57.20775862088211
57.0943736796636
57.54616842934589
58.865244616069326
59.306899029356615
58.85938815204071
57.803851668602455
57.21194928281998
58.54330611027492
60.396506796763916
60.76580449076049
60.999438848359134
60.32159905428674
59.369599368877424
57.35407341766075
58.369750692888836
58.580898665663135
59.055683259058945
58.85546285643976
58.28242092799565
57.48624723341051
57.23211283258509
57.25225151120175
57.890659757167306
58.447178390977456
58.801408687901166
58.27014916341168
58.17075936098884
58.39989586370056
58.83526733859836
58.791048655457274
59.382271167878145
58.213729627800525
58.000758896468774
57.16019327334017
57.514188325653016
58.16956889040971
58.953806871815154
59.140048287249904
58.40816694551162
57.70651356695377
57.677339110534
57.920456721476164
58.9202107537341
58.590913358327136
58.16706608131637
57.86753219073614
57.35826322080015
57.68377261582466
58.19517221148896
58.76813993111729
58.828744701838055
58.978342397282574
58.928367905096295
58.879160803585194
59.42066271198565
59.06262746186407
59.27772775338692
58.765602336695125
58.53230998786287
58.650573336871325
59.05767484982545
59.839246767472396
59.576873505618835
59.561972323277374
58.72818147831914
58.37624628632831
58.4556352645742
59.75146181666069
61.27427355644459
62.48232444460676
61.68943003385073
59.65641759652319
58.368693263567444
58.78928031466319
61.91717937281179
65.75984551867447
69.8145435869695
72.42980487142503
73.24234402984312
74.2906330260135
75.7074371002164
75.22122228979792
73.5424190033815
67.06051050547227
59.466312199806545
56.14244636582845
56.89520267080244
60.529124191654496
63.28552170878653
65.24983819330652
66.05044519380135
66.64861718872439
67.71193235874082
69.84071791241595
73.23975440286804
74.09029284199022
73.20456605393152
70.28301922310509
66.94687421936247
64.90142234787143
64.60622860878607
64.5979433441832
63.307392474554774
61.484926166107336
57.271369197015225
55.28708722805286
55.777535037673054
56.79827199580713
57.98112792249445
58.38843747775644
59.3790878414232
60.147276119209245
60.70861040642028
60.24798603686918
59.240301178895386
58.37529392070404
59.1106126055604
59.75833321084845
60.439922677700906
60.56043124207862
59.97428634972472
59.44392559443746
59.9437060676863
61.03464676411585
62.26069505046151
63.81913337548841
67.00900684278218
69.98932973527599
75.12339801144357
80.16818983716357
85.67720562748205
89.03071747819172
91.71982031530915
91.41695357081083
86.93950395800765
83.22883996948538
80.44820558607826
79.36947877378438
81.06724759791412
79.05912332107725
76.38409492845808
74.30569877135183
73.29075419904127
72.49689712506272
72.26823017385692
72.59570995718622
71.78171238609531
71.31623401899935
71.00480516374314
71.77312830095481
73.07535419153928
74.01168131166126
75.21309756426666
76.10826445306613
76.31588805266612
76.61928555900579
76.18696568369691
73.28564098617291
69.14068561994345
63.98333948618257
60.21900939733498
58.05777926726145
57.83160025421474
56.72080819892895
56.84681503817792
55.21042235075036
55.763490234541926
54.54578506400034
54.65506740142047
54.49269075074364
55.17638338505469
56.00117112227108
54.795018228469715
55.028937909760316
52.98252515237993
52.39862113236586
52.42861237325985
52.48111242575991
53.60868999458996
52.44030507337848
51.849766918119506
52.01457616317901
51.973187676290856
52.3790349246517
53.47339374708091
52.718170983123834
52.103022043862154
52.254685847501115
51.7509018680149
51.402031687901435
52.33682510142366
52.971624154721695
55.11618496765225
56.01861270440803
56.92854169942662
56.87227105537079
56.78827827939117
56.467688145454126
54.78524058365391
55.288089285677394
54.084174130804804
53.24892965655485
55.042474466902526
57.056161940830975
58.54080374413086
59.06358193274883
58.8707659040997
58.0038092139272
57.9936102413467
55.71176762756215
54.27721806225077
52.79441647665515
53.88197715428236
54.676994849421845
54.90272276640594
53.502197931074726
53.34070571947305
53.014776665226805
55.14428799830596
56.02925907988446
58.73045439483548
62.48900340507105
68.39268448974474
69.99072162947803
71.07182221229088
73.07845831263711
74.31568815495189
75.01180669672969
