63.79889727455826
65.42809985054454
65.76928588107037
70.2058663020825
74.24174474317425
76.09141558500507
77.7069166313457
78.57125134652554
79.69818268970499
79.92778236441723
79.01016950882865
75.15019634213546
71.36250396558725
69.40142099373932
66.77747705986286
66.45560185403448
65.92124937385856
67.12520767372422
67.66883365719522
67.88974809428463
66.95374898403705
67.53673365160567
69.36450389159435
73.53308049417916
73.1497255198392
72.8752985353145
68.01805136472704
64.24111099168549
64.71413129796086
65.55353379103633
66.6794471820136
65.91952871153612
64.27352271131258
62.87708845337735
61.858451502879866
62.060116923142196
62.47037414977169
66.85531066978001
67.90113551621725
66.38207393263954
65.07263047502384
60.81342908260994
56.82751775202951
55.25183403375149
53.54650973549888
52.35891444623417
51.576813952557096
49.630478390653344
47.560258198297085
46.6737508755167
47.219414567438065
46.4874949009416
47.49768629705626
46.51441108014393
46.965080260612766
46.88044062680873
48.56425632617602
48.409285178545055
47.501161030592115
48.01517855573295
46.045424856503125
47.52751661214446
47.723491476031654
47.87495879214239
48.33148111685523
48.275936126927135
49.341817692496214
48.10423441044801
48.84558869211478
47.68529910508755
47.73967236469291
47.55268788060589
48.683557707184896
49.04702897950072
50.06744112297384
49.99666604998194
49.08312425447967
48.92093115135621
49.9869061147358
50.368351337029274
50.87075103092562
51.40161142996971
50.26834234993267
51.634492334884186
53.86900399371672
56.69841666108399
58.78735141479865
58.622621499770105
58.73123047396569
55.53649395876664
53.94367091021865
52.980959622864184
52.78840505762417
53.60514847579754
52.89128854243649
52.6282269894474
53.341011533907924
53.97756509384859
52.932815516194154
52.299390259162976
52.27438522028731
51.21455369500436
52.018457122007874
54.17848395351606
54.6195336452596
55.91112796815124
57.32397657212582
60.208845577634655
65.10499493308129
69.6733622444685
70.47882911495354
69.91917690785505
67.66937413270767
67.81391082091939
67.34530028980151
65.68048290455724
62.37676774501425
58.69185109584908
57.33616097901784
57.18579151563241
57.68315747137634
57.491170554694726
55.95533535547289
55.785600776504815
60.378849538110565
60.32927599977768
59.58313664678466
56.15129261444474
53.179532602988836
53.276694151119365
53.03760492495379
53.576193092908234
53.01946571261674
51.409273348302285
50.167488555461865
49.392558312328774
50.48317636273501
50.559804337423714
49.95721234813438
50.569035301591335
50.652287763595666
50.465598032726724
51.186822642676674
50.369491075055414
50.24257811752719
52.074811629321445
51.079561304924674
50.16950351264966
48.69992224469184
48.93245499987359
51.816024565361396
55.07984482988436
55.31439380711106
54.739961054157014
53.85112499456826
49.570292310378676
51.256871265760786
52.031559184524134
52.63099056013797
54.64119405365563
54.96629336778691
54.759834012089556
54.47109749237931
55.25398747053847
54.455163408318015
53.30257563247144
53.71185397820877
52.764485732453785
53.020131195179886
52.20363891306176
51.539642744646216
51.99200075952765
52.37699633577582
52.743437652651
53.55866264001693
52.32869237301571
51.39689123291536
53.06044467813455
52.02981820838983
52.45536880047521
52.61041255035084
53.10701090604697
52.90525375201117
52.75643088593288
53.173700882978856
54.638865842529704
57.55332178374971
58.10453623588835
60.950001807546016
61.587251347968994
63.13097627792131
61.461244875336774
58.73324790405449
58.04293172263538
57.48283554775298
56.499642212379285
55.895530714542154
56.28460399835228
56.12980083208769
55.10094093140134
53.27625138071651
52.305051079145805
52.697356553452416
53.44060147857798
54.2852370592553
54.14826859780849
54.40213623859692
55.29187835533671
56.31332647358945
57.16174697802776
58.456019489048636
57.01449945487434
56.46007552233015
56.10198601552148
55.40123315144661
55.74166477606818
56.030540433352954
55.08069641043244
55.14092688485365
54.14346691199512
53.12550540669017
52.72214100522573
52.66692929852892
52.0083271479913
51.817115490790826
52.15201834032064
54.795422081082364
55.389690368258655
55.50157622732066
54.12111705725414
53.52066612103271
53.80936148490763
54.606325431776696
54.00601438882614
53.37771698636431
52.944671913909666
52.39475651627853
51.467132762203626
50.97489055020814
51.39926602047322
51.38098028230409
52.28754177516237
53.15758970034795
54.136691536656144
53.818316377923395
57.03011133861501
57.225317915002826
58.45918983222759
58.39197825887154
55.384265428864815
55.26137762906696
55.06336104427806
54.12823814008857
53.39838943471586
52.71702311633598
52.4675850354713
52.51408337813752
51.99878182514516
51.639368044138116
50.72325355600482
50.85266199591205
51.587792962492124
51.9236432070455
51.18173464727548
51.373055054443284
51.67783238437402
52.34014276242501
52.51460589813408
52.35543613474499
51.41193847619282
52.80170617030834
52.87616038917647
52.71929879568148
50.58558304554958
48.770058334297254
47.63164551292025
48.140589040820466
49.6336145170113
51.91169086373602
53.40877858264241
52.24356953806883
50.90610916946212
50.55347601775694
50.95917845530412
51.886883433785385
51.5460495523557
51.297426059762905
50.199413940169855
50.37621798054181
51.370337725606305
51.565063440527844
51.67093635233967
52.40346038903032
51.65830638912847
52.93974027635295
53.627962187541954
59.075239977196496
57.50426982240401
55.90528468242493
52.69715211579623
50.05083485249096
52.51668171865554
54.00208421267185
55.153580239448466
55.3272571675214
55.32397516006758
53.68794745569317
54.191219564723
54.24131462041042
55.2832593015034
57.678446847998636
59.16014416760336
57.99192237858452
57.35314920540322
55.73790563084333
55.11530085239582
55.647262051707536
55.84815333170885
56.189614580814386
56.29321190005758
56.14973762088366
55.95388168972561
54.72403885347232
54.94511628745272
55.91636379047632
55.58822329418751
55.305106208366766
55.58737096571205
54.18760570004575
54.62363617341231
54.771612180118666
52.66700545787648
52.18316203721915
52.65088452394889
53.62541653341153
58.07310867574774
61.58057908185466
65.67073765976258
68.86245363639378
70.26704746469952
71.04192434298645
73.87940302029781
77.4661295075728
79.96811289381678
81.57514256445627
84.08685841552996
88.58737101013034
87.55136297729592
84.79744659262602
77.25339361562858
69.31304265678996
63.9339959993791
63.976764897173865
65.88717978426999
67.48155461335938
69.85820101447256
70.63307350839779
69.5662641163623
69.60788914557739
70.45300025523585
72.1027556674065
73.39508624594481
76.48518114316246
79.01855443756544
81.03226198752458
81.52272885799633
79.14740360016327
77.2309723230727
75.92264381172207
74.36241153511851
73.11755018825329
70.46114408785628
68.80289987855222
67.07873430039578
67.88273391349247
68.53582132060626
69.09279491806576
69.11198351941418
68.76308111809502
68.5605158208918
68.49234860145415
69.43880254998291
69.77079890064003
69.70378685141858
69.25110322487501
67.65253727859418
68.16563498522342
68.81724316246888
69.9015011790286
69.98091309764683
69.53090847196472
73.9949282662966
76.06390307414578
77.895232358452
76.84790077343511
76.05007510001386
79.92040778991291
85.85930506158051
91.08496279786158
94.24091057035172
95.8920118945274
97.20291776139378
96.08971032133859
91.81125555541993
87.00202562672483
82.02339927267228
82.63379689987408
86.84729401588167
90.11906213728265
92.66666959195217
94.4968769180159
96.25913983857595
97.29918717752872
97.93511690279705
98.95312840406505
101.39578529788254
103.55722792300253
105.32606679081967
105.29465473281122
105.66919454116146
106.61334809188233
108.16775550397774
109.53833113958737
110.0427898083623
112.21297433100335
113.70724958422451
113.08077352903925
112.90932700146263
113.16720701348666
115.2959710327711
118.3095230490654
118.16127329698686
117.65786030323135
117.79709658798227
118.70845724284078
121.48565247700934
124.09022857030672
125.5050935953845
126.83340269091818
128.0193279496304
128.55161426172725
128.00867148768995
126.83358024943837
125.90758594783006
126.59600458679988
128.3510382691755
129.78249927732026
129.74000450706143
127.5016776910134
125.31369835542743
125.14054095270514
126.5734143488202
129.55013729003326
131.3157837064685
131.3142470563067
130.7588524012838
130.59958473799549
132.30879228996395
134.26840347400548
137.06059956012385
139.09935922012872
140.51594223914583
141.1602504895788
140.8268864890142
139.61886577215705
137.86106177749733
136.533335438146
136.1884935195798
136.49824564364044
137.0242096582049
136.4323567585989
135.58425055962547
134.90580594947585
134.90496524053918
135.9346625509911
136.91934465104015
137.41683715054216
137.1577362295305
136.48053613246847
135.7748066493868
134.40145876123245
133.09958510174351
130.9668479296227
128.58716789988725
127.04959387631769
126.28182566185296
123.97560807712824
120.38008084087707
115.76866594393535
113.07337022317084
113.46379240262046
113.81567957460233
113.91535592992969
113.01862819742026
112.07994783802357
111.49199792253832
110.66437627683804
109.2259428380049
107.29076447610633
105.4052756567277
104.44165134061973
105.06824856116874
105.26047044013764
104.89400003811522
102.6433490750226
99.76733915415564
98.45859222381948
98.01052313846994
97.55259911052444
94.35092125203802
91.54558513171533
87.8314554688621
86.83868366896226
86.35492255480521
85.45756812700772
84.5609404037316
84.57505058512926
88.47667137063873
90.30792082740436
90.4321992350386
89.39588369939923
89.51619509737915
90.57355242811691
92.5077127529754
94.69514982020279
96.07481129117791
96.755190651929
95.0174352919422
92.75939169729294
91.69902464654218
93.88415231884765
98.65280811857325
100.65209494977398
102.01307677224678
100.8501316236208
99.34671203584531
99.30674378206221
99.85518586581469
100.89712991506174
101.55282925602957
100.56559835541483
98.62478100655164
97.45837859567587
97.07657762452658
98.76602422659907
101.54042487343798
105.14561465436978
108.9706616557204
112.7757204451829
115.6938794813699
118.67343610038347
121.00511258886631
122.74762378713163
123.903224411131
124.21734613417487
124.09730399716298
123.38512120027342
122.16349890844549
121.73256346149778
122.39608467990479
124.03964389977605
126.02812182070285
128.6057409827095
130.422844356749
132.40561590574228
134.0062256800513
135.7193208879609
137.2270717446304
138.76686484619523
139.74826496213547
140.63924837789955
140.99639123744808
141.1269781553125
140.9958586754847
140.11743899348448
138.94289660257303
138.3338014781746
139.11483183845942
141.02846844878366
143.10429347150995
144.52241470963304
145.74008397161057
146.90086713667705
148.16558091503956
149.00110146287503
148.94242259632466
148.91233913621105
149.36637738558088
150.39844665946188
151.46992698743088
151.98441080379348
152.53924359605634
153.03132247127712
154.25330263856512
155.6310534693662
156.3746284208823
157.07166170919018
157.1294841679588
156.92535500105924
155.8553599514994
154.32950574793804
153.19169790899713
152.4259324650098
152.17868834200058
151.9328427897034
151.3131277462131
150.6267970530777
149.6492375398148
148.46438757572048
147.07427139517415
146.23406327543796
145.80842721484157
145.70478389682626
144.79562583731686
142.70599800415502
139.1878466068211
135.9183736897214
132.8092754077581
131.96104579715873
132.2449991861072
132.601914251832
133.7722543195665
134.1503458141204
133.09461514051245
131.32706525481325
129.08543581139395
127.13500732601821
126.21613081473875
125.09407124539928
123.91292743363559
121.62225607002475
120.10580663405682
118.77326651358074
117.2863990250526
116.60409274369142
115.77850019963496
115.6626942412665
114.99817255645499
113.73682532697022
112.4762195527827
110.80444651796735
109.49532946263997
108.9739596091496
108.23727829263062
108.14685787182329
108.97573814639493
109.31942917081074
109.23302180927477
108.7842612779907
108.13606735025613
107.98699577988639
107.88882209246465
108.27798212520801
108.35644903223954
108.46962181092275
106.23739048950821
103.84992619747847
101.64530182367623
102.0796629751451
105.74500751839679
107.47134117576505
106.2259508434847
101.86674846748684
95.53076760284046
89.64393443191732
83.50435655464939
77.79781290886997
80.15184150111759
85.98829826748955
90.71281976624344
96.08140318514029
96.27467472625608
95.06431501492149
95.06885591237936
93.7318993064146
92.9820714036658
90.66591667965396
87.62213960657029
84.14215735400401
83.45843426732225
82.05259962507392
79.06867368232085
82.25146309877212
86.44206691367319
90.36617992607728
91.06960055311954
88.91379214654887
86.64827924414791
85.23048591348065
84.5235287120784
84.05258534426632
83.73115081923757
85.53492008864612
86.17373487854623
87.14115637925039
88.28769064509362
89.13469224611252
91.30008806383114
91.87685970945581
90.42084204179218
91.00980176078471
87.32393732606175
88.91276854600466
89.47551621017713
87.46746919324168
84.16788804126088
77.82624538069635
78.02254615977158
81.98038217946367
83.32132687657933
82.73375345836033
78.17446331371325
73.828983065254
75.9659348775275
77.66441812689429
78.85653429407911
79.42946343178427
79.75952028362897
77.28107227882477
76.43160985703291
75.0760370893626
77.1985387132285
82.48084447870573
87.23262505422267
89.80584626923556
91.66624817917645
93.32109023538719
93.7545211749713
96.73580506458556
95.88637902142223
94.39636444042708
96.62176301448842
95.81573153191927
93.38865479794116
83.97084568237867
73.0678264018423
72.32759226887069
77.29329810154948
83.27718604162473
81.43770442018834
77.4028443686466
74.5634728161826
74.97358381846703
79.69147142306461
84.3882620655264
88.94149869212002
93.55316393728909
97.02876621284383
97.33392235160021
94.72373645786801
93.8625170420184
93.96253098913381
93.38908790874085
92.56660582927785
90.63657733870805
88.7022999365438
89.16126686192973
92.36286257498269
93.63571944379133
94.27983080809666
92.13468766686144
88.83228989041064
87.45493154781897
87.08096046717424
89.47963611709349
89.21158629451571
86.591053874555
87.91415938031233
89.54814276683328
90.84999822599231
90.98997388464369
89.64126777141378
87.83259535234019
88.3294813115417
88.66968659144807
86.35225247512571
80.68242802062537
78.11304128391329
78.63769369652343
82.8595179941351
85.48248747772213
84.91851874931966
81.99606944103641
78.57280806640478
81.66263886615845
87.88218232525958
90.3223054287464
91.07318889551242
86.09309692865513
78.45510345435164
78.63480667115685
79.78539467872494
81.20099551664694
80.46318560728963
78.72554269296751
82.26164280672421
87.07965389525992
86.96181273589235
84.01107563444609
78.42089018114098
70.46299579681498
68.87507661149789
67.39401828995778
71.00672436503599
74.68775596616592
76.4113668774511
78.50300062669041
79.79708934624394
82.79646654540184
86.86362282907135
87.67179725597724
86.07587846799872
86.19385252646566
85.74791776550599
88.05419565498035
89.48569783111701
87.81886851589658
86.59760200222937
85.36498548545643
83.53038130820642
83.42568491378208
83.70251318652913
84.75261111561318
87.8918787252077
89.65180339763067
92.67942132717393
93.14119104349693
93.08708464004718
90.80977447040856
87.57876097042359
85.05223077021773
81.4076441105637
80.23555957252742
79.18320985103516
80.32714715056133
81.95624856244639
81.42962396680916
81.51773628087511
80.14561496226675
80.93456160024418
79.8179251157513
77.21389486340128
74.30741342216875
73.31438390189385
75.75092240911012
81.18798060247063
86.73782008687768
86.68426988537989
84.61299225554707
78.77402387231804
73.65679687824337
74.30775253123306
73.99337567602015
74.26159885759189
78.53396640943967
83.99997117820631
87.0852958227051
85.72051756611577
81.0765999449185
79.12286619015194
80.61566168386406
81.86042659874533
81.27292044631223
80.75536269604271
82.19985262453672
83.30767791444744
84.91634032753568
86.7055522898323
88.84499944898917
87.46111217469735
87.56113105841695
86.59240648906122
86.66887602338007
87.02522948530124
83.6864679690541
81.78622328217509
80.16565617934438
81.368510551556
82.40824910121077
81.37536058083431
82.66230413740637
84.43089569998848
88.8091540259061
89.79946171834337
88.9623443106531
89.62195099641006
83.43611822630714
80.25902368608506
77.82699917538518
77.51531934058157
82.28596879447251
81.86698983614174
80.8139221421445
79.55022176417853
81.0061670119823
83.2937406274245
84.4102758516003
84.60158302927624
83.71627141228355
85.42122611390155
86.6423342683994
89.29251229463662
91.91556600529589
92.31462164270401
92.21636509661512
90.7049046253454
90.36282671824577
89.48919992015772
87.8706891191455
88.36683513837218
87.03387764387512
88.71721970545673
90.97255221029401
91.17298256897715
90.58524717606885
89.60007506323323
91.29773933449253
91.47712654207463
89.72556993014597
89.44507198265123
88.75621699698276
90.8340663431515
90.84477087070071
89.77413540584037
85.91006973580521
84.8336949810938
87.20483063342978
90.09590800788905
89.0594511032368
87.2654836943128
81.82909620620478
80.0598432644421
83.28010125645473
85.42513490662856
90.02097174469277
90.11403393143628
90.82530429514385
90.41864483838035
90.51325419885382
93.53111587099437
93.04703039161173
94.11326110702244
95.94814918892662
95.26825843272483
95.0026287139898
95.1416643543338
94.58052456505692
96.18932026216781
95.35658081403798
94.39207503861388
94.36294325589854
96.4051484176428
96.77469008536023
95.87304862864802
92.6893959663964
90.429508305458
89.17291803193916
88.88388907203733
90.14469238038795
93.8431952902725
97.81839268749798
99.60773064684751
99.19634327110822
96.73044151973299
95.57113149829216
95.96080512890478
95.03205875166634
95.26756939949901
95.75208985968449
96.38209602605599
96.99403125262548
96.94485871083923
98.154776334966
99.22745906197316
101.29951525809294
101.55426281834221
101.96312386908163
103.02930614840474
104.14756852189488
106.64659584838279
108.80147044260697
110.95201856422909
110.93343482154502
109.74554496915223
108.24304480923594
105.80311534151967
105.73609714812548
104.79614843158183
102.73679670229542
101.12375280889398
99.22579269165112
97.19030806825572
95.5119653488868
95.89302269850673
96.45353303327857
97.7623273747733
98.23781992141461
98.03332844462392
99.86511878321731
100.76057168172002
100.78061744948506
96.44972182527137
90.91790196785666
88.05625765841243
87.14519580090594
86.93059131932148
88.32237434974114
85.27079473172113
84.68646206290754
83.43022541966327
77.25096059580407
75.2904680052508
67.7513279888108
61.6007813653483
62.101661718172444
62.65638875845452
65.53551630474351
68.89923966767428
69.64741731540576
69.47114468381491
68.98613770089582
68.16517148000696
70.51186943635219
72.07010743059851
73.09926482483226
72.48195743915028
71.88573773668185
71.23891592939634
71.6219134519342
72.04061104181407
72.88306702587604
72.7302205021759
74.54383612340143
76.14661744099037
77.61101317461745
79.71013574519807
82.58735053276135
85.10916016966316
85.87608720091198
87.35310937751879
86.64454267506548
88.0412958098553
89.59734572560549
90.11945638516467
92.03824774665328
93.40785337612346
93.71343218320338
92.72817062497916
90.1946711501253
89.86899648500894
88.28700192832538
87.51986199977776
86.16433518421832
86.21567628787093
89.05093875384276
90.80298696770637
91.55858256299852
90.54436611265297
89.8090004426783
88.83737756941716
86.72059959279852
83.38861261858789
79.64163637690379
78.14498014259861
76.71302120318362
76.70650299104368
77.19596568650627
76.2272411355946
75.59792859907219
73.05679928017034
71.2632940497529
71.92925128471484
72.22750574472633
72.27517541559331
73.36699335470881
78.75260759014955
86.91282394233235
92.28840442401862
97.89221266970638
100.46706922570893
102.16812379054971
103.30777190905431
103.66183058348683
101.75150548957929
99.01419959393222
97.69712248254605
96.36971436539835
95.94183556630568
96.33069412338038
97.64972183109951
99.22111739229366
99.85446126747236
99.55645744374664
100.0405213635013
101.04608865041561
101.67578695395217
99.52198835370355
96.06624764861861
94.22939072289446
96.22830673273006
98.78741401081714
100.43280010974847
101.2181372689294
102.43480498596419
104.55961467887316
107.37009030590205
108.29263275538227
107.58484247840808
107.5991168009854
108.62035599268626
110.6166524598397
113.0095444858142
113.37825765476761
113.0476623341544
111.5115280695094
110.42436766007312
110.16589090561288
110.81798028777564
111.71484116022398
112.38950283266102
112.58351744413297
112.11688951873724
112.2888421963693
112.90838659060871
113.97818658367933
115.7624901418365
115.87500935105184
114.9962805570359
113.12491727304644
111.92150825663438
110.67238869480862
108.1751436723905
105.55843763912475
103.22798072412576
101.6178301959123
102.64641517615729
104.65739418202627
107.36136567162104
111.75760169648005
115.76181312718835
119.76383609777939
122.01298744206609
123.5286173525702
124.82364363557292
125.58480378491663
126.68257891152865
127.79636925227362
129.10582697290852
130.5537030358092
131.28386911965714
131.90208318449504
132.58362240330607
133.69158760726182
135.19460810139444
136.40277948814108
137.1534830696025
137.2320453973999
136.45994877424596
134.9970747543307
133.72980932639655
132.57570452504854
132.42231593342066
132.92342090177578
133.51703739922513
133.81254390814155
133.8884604298953
134.11910265268648
134.12006492436302
134.0708960914834
134.1430814519915
133.41413098365226
132.35156662966585
129.87834385781576
126.0036662904227
122.89829159186108
121.4902271023462
121.57787549660048
122.4414827585458
122.7254967552146
122.67383455673084
122.60095458310646
122.38429075659519
123.47202752605124
124.82043227611302
125.74646909224045
126.18168420170372
125.64799311721544
125.46738710392609
126.20934459260366
126.67664530106397
126.72451450851156
125.41683177786345
123.48256609453756
122.76869785354462
123.28527568810907
124.66657863564208
126.9173559818786
129.45954004991725
130.89452819986204
131.43880928688498
130.20020137121134
127.05949105541688
122.7412443411786
119.5051011756037
117.55231876124638
118.24058608843653
120.54055248411777
122.35945231484749
123.81155541621433
124.4732296248605
124.51932386016497
124.15874817595936
123.73275080815951
123.19594333131695
122.46844434902879
121.55981236699591
121.20451169756156
122.57017929772185
124.90000422313761
126.05025357883228
125.61451188617848
124.32506681293998
123.05131817151597
122.95429152495817
123.0970928101904
122.11343870726901
121.40485182140011
121.21416486399379
121.33337572211363
120.65140621430143
117.470585607589
113.60730265334304
111.78850140926822
114.1565075137265
119.84120738114977
125.99617259624839
131.58198508840297
137.83121219566968
142.77265705035774
146.20998365609216
147.83703784900936
148.01653849200883
147.41459821581012
146.7420307302831
147.05613518674863
147.40007139602233
147.7244228898896
147.7794282389342
147.97273842878286
148.44247368041158
148.83086014508365
149.1607216160832
149.2438199438283
149.10473476941652
148.71712652712668
148.60632945096933
148.55073481002796
149.02658456390222
149.58396156212189
150.00301464806728
149.7529248105679
148.84007594036896
147.70477455584555
146.13390431345638
144.89539557648473
143.89809357136113
143.73580663639257
143.9245768266852
144.7839236568664
145.36216361072604
145.11444939387056
145.28601734333063
145.7495673665838
146.96788369859837
148.4234416620534
149.3860870954626
149.89043265353325
150.66106637716314
151.7841542055138
152.79738332109446
153.8826910811241
154.77918234682764
155.30381886544944
155.7315959945288
155.93229399807734
155.81663692129345
155.64888350467598
155.47201303169135
155.15587365542018
154.6985472682781
154.41530838274213
153.93719919432934
153.78922102845326
153.55344748066904
153.3467934202087
153.17012327382523
152.86763220911106
152.56486741124837
152.234030717018
152.2619006572967
152.82849589569733
153.8019563705558
155.02328665049845
156.1418134114876
156.92710080458096
157.75385473073854
158.67267729868118
159.098442344855
158.80363699405774
158.0027018859365
156.63410688107817
155.705247861337
154.73601943920235
153.55656506190877
152.06783693383522
149.89422163615188
147.11108369241248
142.67216790682684
138.08613454577633
133.60551924747867
131.5159655579392
129.90343206994228
128.33186460320985
126.15865769775783
123.50741258154085
121.87570485975965
122.03743407510827
123.10695560675921
124.39229973165118
125.75945276756431
126.20289352272441
126.71186116558248
126.36824330244724
126.7539509972273
126.49743550367529
125.4825700077713
123.93731679100287
121.76783636470891
120.38235637966358
119.52912885178912
119.20999123938046
118.78193767585202
119.19359412926862
120.28400275305717
120.73823467360336
121.44634749536449
121.6783838596108
120.55084210275746
119.81064081602791
118.1394531498231
116.13072157327814
116.29209418812219
117.55512648477257
119.47268732977169
121.98129355208576
122.75917527259956
121.43465379087117
120.35690101487677
120.38427762306095
121.60028560647046
123.54842421983147
122.35109815529816
118.64229837380087
113.0987811609496
106.5784513498301
102.46392525291535
100.91122790697325
103.95204257069116
106.1105238804217
108.50746366984198
109.2737554922213
108.66665802192762
108.46939471214614
107.22454427295428
106.24825144298227
105.56660102875725
103.22704152998561
101.59380769677068
101.41551129263296
102.46852407187033
104.70313761689233
106.07332224649069
105.59190948858465
104.77744524933534
104.92845602706883
105.78181286359926
107.14079099808518
108.17467177097149
108.16840921487155
108.175165086024
108.71097522318156
109.98716536866415
111.87328685056458
113.54256365031634
114.20274103199155
114.44917645851258
114.0936896864498
114.11613480471217
114.5257850920309
116.13903676129381
117.15656113362931
116.67414035407047
115.22476073004906
113.13107185817145
112.00334096730845
111.77764543026228
111.24129735781243
110.19902811862713
109.36525386602415
110.2195094024597
110.3434391321464
110.23974906875002
111.25550918578195
112.39336456846222
114.94164518493062
113.8416027728602
111.25681728450188
108.87282998023662
106.73776543999583
109.07274236487658
111.67405469007085
113.5814894172134
115.4654939651425
118.8595272402412
122.31968091845809
126.55770944380662
129.95712762925473
132.18960067891894
133.8824836642882
135.94711133662324
137.5114447191153
140.10848854123864
142.2071090760047
144.15750299522273
145.33881196601232
146.27073223742192
147.24342572408702
148.0061700962064
148.4409130711415
148.32771923896885
146.97068407849397
144.15068465829623
140.95605755860183
138.55676487304723
136.66927283969565
135.93100475509152
134.7422538067613
132.62935749513346
130.37211802141846
127.53169729836637
125.24031865785719
122.69736637729072
120.79006897016166
121.14021133448614
121.9449512159875
121.1530808542769
120.54290730257253
119.07305215683485
117.65572117109491
116.67516473897815
116.20473573126469
116.60635881919889
116.69039524699483
116.6690067325341
115.4979270930867
114.95645795218047
115.51032297938761
116.39302410624472
117.59807817945723
119.3189660573343
120.92362891593088
123.36478866996497
124.4714721056726
121.7256354774591
117.17714709857093
114.00971958113259
112.57718967354677
117.04678225776533
120.07163135696285
119.83501906497116
116.21640931145943
111.39812482900015
107.13604213264716
105.29621317599698
105.37210709479504
105.9211223558415
107.77742972601021
109.84898113090425
111.2809925992312
111.12655073487396
109.61299147570404
108.00506038936427
108.99578857117278
111.68736541203245
114.31501875881864
115.20597088652072
114.99755304019904
113.14107565680294
109.88753403699107
107.74713716238759
106.3389907894865
104.49151632975203
105.0088923892473
104.29460678399383
103.30654445036716
104.00014455428082
104.4036688803219
105.98115450486686
106.57774683314946
106.87280368521677
108.2644151933201
110.40901964521399
112.18745532505092
111.63692589738277
111.19392232911068
110.08452737245958
109.88318695168434
110.3620882645589
110.18873611621396
110.3667082966232
110.9396344880458
111.17994338531707
112.6421760225567
113.55154801476489
114.26913463011762
115.74510509946788
116.42386563133358
117.66215117910184
118.00855097666886
117.81065516667742
118.40699900195342
119.79845666357087
122.25106912017658
123.10751998456173
122.48624900560542
121.44122986860492
120.58829525620408
119.89400161691057
120.07557732084597
119.93776438300827
119.98100157317566
119.80488702694272
119.07471870250914
118.11169305419983
117.97556739162728
117.3266243432538
116.48482228505831
114.80029509839567
114.22589371639377
114.72589011805074
115.7903200432054
116.83551049853541
117.53741565189866
117.99419298999216
117.97589977306733
117.55442229298362
116.97233657116854
116.06155279601947
115.20162873717699
114.3317554028311
113.34756121037229
114.53289164328974
116.10239037255754
116.25948246989851
117.0692882359702
118.1849575380465
119.04445307605536
117.97953083021702
115.55728767823943
112.43141712745228
109.29150048831559
109.03378216353275
107.96389869763267
108.10691240599188
108.80879148771659
110.28648271853622
111.71794383702593
112.16047577624701
112.18636319580052
110.54400815310366
109.53325445582863
108.94716184398688
109.15766545682122
109.64136307505254
110.74452584321678
113.26259315004111
116.2156259775177
117.4976246438781
118.41946604629193
119.42513894258444
121.29324902953176
123.64151524261734
123.82749699066271
122.39025547081741
120.26522040151099
117.6618586194303
116.56669093932099
114.64230557722836
112.3189377339506
110.91020219212194
109.32291512891761
108.09060331059055
106.38411721733591
104.92759780987147
103.45450852203003
102.21028253163618
100.02972103084738
99.5980675735223
99.2749777312316
101.37282351631349
102.76371037723939
103.65650252664399
103.68527658351546
101.5574158558429
97.1740498932001
93.70393272371571
92.0345118048155
93.14412308879186
97.62536562981528
97.85754660327058
97.22379783821418
98.08214520236127
97.56286299765681
98.4585088222205
98.40541213738156
96.79090353432349
93.59850778155258
93.51941895933392
90.20509498945906
86.62256115085054
82.08075804366169
81.72960748910167
82.21257648698666
82.80255021875519
79.91419946705143
75.55586863598529
77.08014879786951
75.77073495198536
76.96418768800464
71.65560421418085
68.61189187846163
68.83991419207375
68.2057023271017
69.31893040955141
70.6612148557623
73.87257282005652
75.81503003198335
76.36970950918455
75.81921422276527
74.64129565334709
73.68039879214025
74.0946012836943
73.77435612082583
72.75710195079456
72.29582279725707
73.35990263429986
74.33156801440803
78.82625902768753
79.11793481440378
78.04855197859334
76.66534385547382
73.7437416527477
77.18541878146875
82.46391507540658
85.78330871458917
89.43751354504829
92.10919166007758
95.28166886794197
96.7093075298218
96.52688811228103
96.57578044172901
96.78881873380402
98.34327697375853
100.8868999438143
101.90751405677992
102.3670010202943
103.0872571635263
103.90622843467169
104.42208407744614
106.1699789216315
106.73119811562626
105.19444110997173
102.42175143535391
97.16031738282079
91.77705487835533
92.45686107426435
94.9460263837388
94.28662525257049
92.05283357077828
88.94861057933305
86.2666504812125
85.18588509746768
84.17507149828242
82.95315544981962
82.95791623137738
84.838225647193
85.7886811844348
85.97169486486138
85.17923575985563
83.2526779043261
80.50636108862578
79.88463257615065
80.09313310955801
78.32218255614265
76.05643606717219
73.94976940660173
74.47928739745798
76.3075883942039
76.25979811745759
76.97338819369007
79.42916658634084
83.35944341661066
87.74559992890848
90.26942609330312
93.38610017491432
96.46707131091505
94.11746000273456
89.19611708669063
80.83483791793182
77.01386139717845
78.98288086919486
78.96738049166123
76.81640570427768
76.93803583813992
76.05821400241751
77.477268347308
81.85418039001202
83.37616210290994
83.47303222808925
84.21611510092846
83.5734492024383
83.51443673585304
83.61161615814987
79.56882774266943
77.30142869041258
81.18262579426536
83.66742805023466
83.64534986378595
82.8198416958542
79.54370766172538
81.53981663182253
85.91632473955347
85.08856612535206
81.46600019857343
79.30281853519803
82.17599761640608
84.49732195903098
82.85177880822751
78.16063781621963
76.59192302795174
78.3298605060835
78.05785073985311
76.81614014364004
76.47180166863589
78.3517373283731
77.92421283011126
77.0041134026035
71.51142637421657
72.9192180034839
75.21066019645852
74.95424479567363
72.75091151761613
74.11178960165803
78.43181164964943
79.0432271703094
79.5338235130202
78.71302789459966
78.7592464528758
82.48137979480227
84.78410812301445
87.12932227898082
87.03286198764056
86.8676535317393
87.66412545970621
87.58319588320319
89.04541252528887
91.97891233935717
90.172291267921
88.24193742485653
85.69389630532075
81.2870329254428
84.08702418817361
86.56348817239747
85.01108102114594
81.01501928177136
76.73567819204105
75.29315597333475
79.3578673472878
84.39825602801064
87.77318348311125
90.17298882925101
92.75701821516091
92.59593069545058
91.8807602173304
90.40048283884309
86.56006724363378
83.21280587001328
81.9533864852746
82.26289328348678
82.89138024992488
86.20823839778166
84.25647768599873
81.00161834708405
79.75955714196908
78.96923349500977
78.66550674724938
81.85299088383324
81.87651668394668
78.4941506113144
76.99190126164083
70.33001907714811
67.73455481943832
70.37901830867244
72.28552767192576
73.57373387806378
74.69898197834031
74.34023831053119
74.58234365363293
71.18135934102693
69.46502333397535
72.63621214904371
77.94475326226895
80.10722451270695
79.74737132035251
80.10287145507759
81.71403181626496
84.6406989871272
87.24227476673792
88.38612576630864
89.89051051037352
91.69015515926144
89.74201298782481
86.99585371478776
84.58383544374524
82.51518667117654
82.42341116431459
82.09708230909187
81.56928216699448
82.80275438117494
85.9150387210445
84.7739057420854
84.07508259069716
83.40923855912652
81.4661541268385
80.43638046333018
79.10976714847959
76.09407468013097
77.07645408142622
79.77198631755054
81.84946605042359
84.95935193487902
88.39286586327972
89.74696545127713
88.93298005216023
85.2924977092806
82.72153458132429
80.39325750552496
77.25024610509321
76.33351642864251
76.58827271515952
80.26669003441631
85.93645171946869
86.91492787571843
85.24377042547938
82.81004713304856
80.04279987331726
80.13753188034813
81.85525253656158
79.63210435512667
76.59913752798371
73.90730380188634
72.86591686318133
73.3584676846795
73.49004822019288
73.76370986031843
74.9456334700273
74.76185183225387
75.81058695034197
76.02233954787947
75.12826563018254
75.2187778567766
74.39256391361967
75.77918943618481
82.2245527126287
82.68132814192163
81.01208913862487
76.29469939731125
70.29604991784738
73.19717704205804
77.47233567588425
77.99222461243077
76.27976600919648
72.54421650026552
73.8809911793003
79.56970466998729
80.59538037612556
80.01187562777295
75.85205126916782
74.99008755944364
76.16853002095966
78.36934501851682
80.47816167459436
80.6014934987345
79.74332581349077
77.15706325663714
77.56884397393267
84.34629993182321
87.9946501652612
89.29462359528084
84.95151829300802
80.39018728702594
77.92869576221469
78.6340885898014
81.8944187463562
84.52146654936588
86.97785787100335
87.14699237424067
85.78098133887966
85.65880613645028
89.15682552173539
92.06677812828967
88.13308180529191
84.46849005124622
79.64147808599088
80.03428398554857
84.83345236776846
86.28351835360428
88.44482864827405
90.81027552803525
91.00116652354244
91.10847172566491
88.93379049295008
87.87961031583723
91.06897308766546
93.74721369301388
92.20751316701592
89.85149920227445
86.3143604062432
84.8798047550653
86.76763367324511
86.37082101937855
87.51553733341997
88.00762856627472
88.00708040538005
87.14190777897733
84.0351136888034
81.74105820904948
80.06379985376341
81.82642131562997
80.39079087565997
79.76351493570115
80.33129599933734
76.71803595883716
75.62935465694606
73.43269581374346
72.12517416991383
76.26603476201177
76.8900939129183
77.55437327727076
79.9281204497128
81.20598592599582
78.57185175776614
76.62381094668586
74.06316748260387
74.24379108660445
79.9794388976174
82.07073621483958
83.79950461090723
86.55291942514576
86.96627192259662
86.07406156268341
82.9167011485734
79.70109647152032
76.46167692926592
78.06419151854992
77.80620167785713
77.4684861604958
79.1681048733478
76.76796506814134
77.47952417669235
76.53056171037693
76.2186275412462
74.93240705871658
73.12338086989199
77.8971637232791
82.43681601744629
83.91883356518554
83.04256479144127
78.95703544615506
76.69874708004821
79.95635476903378
81.0005405286287
82.57921871383085
82.08058727368609
81.97093353358794
80.81527324021138
80.02070640735168
81.6043469265733
82.3761630841797
82.92543549402369
83.71863526117066
83.34144990827158
83.67049969120535
83.16269557259173
84.48252451267527
86.06226471346518
90.0777908194555
94.16184292655652
94.31540275813819
91.65871383998113
88.93217841567234
85.26604258361597
80.94810038744326
76.99627510944933
70.25946583821397
67.75129022333829
71.55480707098991
75.99373810075687
76.42634793144234
76.88309716469905
78.91353054291714
78.68626100907899
79.88484515922565
79.23458639902742
78.49378582304192
81.27847336552311
87.98510196739386
90.53006661751358
88.41401842422006
84.8166364924719
82.11483019942875
84.99802215768632
91.76895717056652
94.61815371580668
94.63634829314574
89.31466474684412
84.80087389243947
82.96808476100229
80.898121561388
78.59069847383617
75.50901683698382
71.89593820971737
71.6175245763698
73.73563802115451
74.13637603922106
76.27031680554592
76.76402136104242
74.85847344044942
73.1741453694445
73.9366329750748
76.77694795529452
79.53452121446394
81.97846974665467
82.75955079157826
84.63986818471618
83.32485437184431
83.74320159667454
82.72110250017377
81.91745056935846
80.47065676526935
78.10386865669518
75.14713222964852
76.4006735963261
79.43565961373274
78.63653648773371
79.1724152471363
74.10632669464785
73.66037373176356
75.88131256516623
77.15641044635004
76.84847427015458
74.08565087107573
74.09974100694885
73.92046520050579
78.4286841095935
82.10167211938706
83.85324483071022
84.96392189177556
86.17171697776854
85.75526633455091
85.40428473537153
82.83897670259414
80.60043190909556
80.32153261268795
82.32460656910925
83.94855373037797
85.39776188044421
87.74985701635545
87.3267495557469
86.6533524146569
84.51741931676835
82.94153502201586
85.89790682348836
86.21862166377628
82.59804371199286
79.3684066072907
75.58181165266004
77.48760721026153
80.41469160836917
81.6948421188803
83.00006791385734
85.21655786716522
88.28054290599023
90.42625801510326
91.58289385830506
91.440904016058
90.807003178489
89.6787633428428
87.71213737388793
84.36922093688904
81.47931580393531
82.89958712684071
82.1332233985415
83.42632604219519
84.03135140073933
86.75999657451669
89.99575554985404
89.91462432774448
86.3443407747054
79.96069087505794
74.09085730026307
72.48283527652113
72.29796548564204
72.36698184664786
71.57468042077828
71.17136455676021
69.26440223320998
67.54249630914164
67.60424400025323
67.98140569528185
67.5727839186929
67.0365303314035
66.1533339905662
68.22356870699109
70.00506754202706
74.59161791090006
75.6322181530152
77.29555756604162
80.71833561866855
85.51124782474562
90.7896427277702
97.5286149922156
100.1290293185388
98.66094769549869
94.05161708874927
89.56765324090462
87.19679956169664
87.14921818862611
86.36676687598774
85.43957116472575
87.28842281708233
88.70083344407824
90.21957838227799
91.02502162441887
91.6746632193066
93.36773443333344
95.10684264278285
96.65188164556794
98.47377820527981
100.23407511074221
101.23974653199163
102.31417604660277
101.84587442022242
98.3757052595895
95.1172664421551
92.26002432841175
91.61704614936639
90.94853473839247
89.65951524457338
88.91602833939737
91.24080377020309
94.20157688315749
94.6767296133947
96.53944820261118
99.41080402593947
104.42082729097262
105.26399058621767
102.87922496471128
98.78535841424507
96.63464094593252
100.3702125893851
103.88423534090013
105.56795929876544
105.1270162496878
103.47121969502474
102.97295431621062
104.89978099356803
106.96295762661073
108.84490436672164
109.9033052190066
112.04507334228946
112.82647190901307
113.84414524128393
113.68178763282437
112.58437166152935
112.77721858362574
112.41982551811189
112.0577502661488
111.4630694372821
110.79905898004138
110.6967911824428
109.88171106493985
109.58734157260656
111.2635463348902
112.07318307980975
111.24004709977095
109.22301333961319
106.8513828438863
106.54826534059166
109.34549876183522
110.31110764946393
110.01310256057675
109.46496494360558
108.14077517013646
108.02684727062397
106.4473000954596
105.25254520631817
105.3140912326958
104.92407982276042
104.05634357130165
103.48690939045193
102.0417955692513
100.07129169838593
99.27414959114562
97.59959500443051
98.91099195014503
101.11211383445158
99.78638431276377
98.19023343954503
95.59225584322475
92.98211434597583
93.01115666477318
93.16055748353315
90.67164995507882
89.40048470723241
90.41057931155368
95.13894696142931
99.8929576242213
103.25802049620347
102.97949641611383
101.15733135191812
99.90003381211746
96.5710057019769
94.8580668064494
93.6918847590718
93.78165095432854
94.1454071223842
94.76964319586874
95.9790844765943
98.08030957310969
100.10736884975086
103.81114458802323
103.05259669475208
98.96994560646112
94.04488922346883
88.43171368233719
90.21200499753834
90.25622187895782
90.52441800405835
91.04526120795536
91.09274534064866
92.8247309105403
93.08906351519599
93.2473552844121
94.72872638226413
95.94591717300447
97.0782970767665
99.14128608050831
102.39647638958002
105.07677882317662
106.29006134364704
106.72094388697126
105.57238438449508
104.10144226646844
103.88914242148076
104.17972568940733
105.2174586116049
106.50914392171187
105.99235037258502
104.03360347952353
102.8978179656667
102.23440721562338
103.03071202306356
103.24009069103899
103.90571048021717
104.67456012842375
104.62205379703043
104.35958424823956
104.23287574551517
103.2324607987253
104.51072864815751
105.82523818594937
106.02542214741278
106.64686930583647
107.2060527690709
107.4009841905494
107.81621843566649
107.45877208780499
106.42044451927478
106.32106147225075
106.96766192754505
108.83621922080299
110.74020786792457
110.32224793206821
106.42932567901741
104.38361872052376
102.5971279716273
103.98521836616808
104.20561704664746
103.27752407947112
102.82547160956541
104.43869655985519
106.68730202906121
106.73375894524851
104.11176466449656
102.57005889114326
103.61591356620687
105.56423453159452
107.39189027218642
107.08786751582716
106.4262399537238
104.57236976576284
100.94690784546894
98.71753455703241
98.28531525753192
99.07685692257012
95.77698721420404
92.05603496341917
84.54933047782917
84.75638147781542
89.29649743854343
90.86825163433188
91.71088836123117
88.73951582427634
85.57191057145126
86.00771182764592
85.67148804381232
84.90539300724564
86.54744785238704
86.71709333383755
87.43926813859738
89.46930274347493
89.02935308817688
88.5122535713884
88.78251788344868
90.41912010826654
94.57100568498718
97.65286225546089
101.24362877192188
102.43896341113133
104.08224162442033
105.30879773499575
106.86877722763153
109.0409241506851
109.66325806234212
108.15025400608064
105.77834828782497
103.05751990877432
102.2062505012509
100.82950149650155
97.9368233968994
94.60447663126864
91.81344409326897
91.21538859376356
92.4912231315446
93.19736736909091
95.33618816890134
97.17945256101113
98.0312445754903
98.626210336024
98.23861590423444
98.73310961124288
99.21717310912246
98.81886956385438
99.93295486658589
103.19369985849669
108.38968373930855
110.04596003573147
106.92553409173469
100.65247476039842
93.89768086089975
90.47453298438609
89.68694758488677
90.64973976898797
92.33110356162057
93.1016899955702
90.36456280290746
84.36607601597787
76.5279764136816
73.64409328052056
81.03098427799905
87.77294407522768
92.82911849630216
93.81508704434013
92.38812159330381
90.15771611458781
90.02011850733419
91.05784044283551
91.32426557604582
92.26390940977036
92.72612304847354
95.89016296557126
98.6099746979534
98.53184441149712
93.18769567260892
86.70954738283761
82.28132802567025
82.92633832586957
85.17238817650193
86.24745283707666
86.27002588983363
86.8673285486474
88.09890615574446
87.70628929954978
87.08708979509534
89.59068174882208
88.20330513836242
87.62223663744477
88.07960487928067
88.97121120512335
91.10020779552086
92.77244347549517
94.63653286268091
94.95978141265952
95.10708332252183
94.12586666287562
90.47191403598545
89.8017431496441
90.7083692672321
90.8368067670805
91.6440201331587
92.98062604220746
96.2776200021628
99.93650856182724
101.62741448499816
99.12559356952102
94.78722873897955
88.71560212396761
84.85539121787058
86.80940012795455
89.7334503581666
91.49391059046724
91.53622284403345
91.9438373058034
94.76662104640612
98.79574660370714
103.0408205785728
104.88616030101232
104.89212830799184
102.71604910499823
100.00699780022687
98.64610267061776
97.87408899220713
98.08363689829935
95.29176495930362
91.32573455967794
84.86592088947796
81.01984361000306
79.99193741305889
79.70637727792034
80.33133268120105
79.26210551669426
79.70426359070166
80.60208828495178
81.33455169293185
85.48609505937347
87.96899902806595
87.12113471460907
86.67239641606923
89.22084004979591
92.41643323862932
94.22105181611677
96.36953770107368
97.81741246336999
98.7047711051707
99.01294995439615
98.22030221821977
98.94168919304367
100.90096840133276
103.70853054782522
104.89664562031845
102.77204841865148
101.13932753274443
100.53028057495546
99.99646840263149
97.30898886533662
92.57768411492457
90.23632472694796
92.1347302582667
94.43770250959416
96.85396234975697
96.92550449173162
97.20490399004893
97.45151563345532
94.58862852322248
92.63112597175906
92.36727657053568
93.14130425960519
96.68941985493652
98.73050634563704
100.01523906535698
99.96559351410455
99.80584808164775
99.19936868037264
95.50739713334839
91.45165972900527
87.11455152883882
83.39730398090975
83.76770225184748
83.16687914620091
81.78282895623616
84.45751112537087
87.00583908363124
86.28961362946669
85.90551806686928
86.09452473250877
88.27674640208521
93.22265157075775
94.13476518988845
93.2289596244585
94.57850958373058
97.22550899899637
99.4381128052916
99.53500231166397
93.27199876536902
88.46725588806376
89.4013288360149
85.73445218310582
83.51060778941766
77.06647289994618
70.98767913758708
74.1163190323725
75.39623979405174
76.64151026791052
77.31036512851333
77.86425133178253
80.05510215793
81.82365320262717
81.5415945238125
82.32066901645285
80.05690357593144
79.76534909359489
80.36112173258874
81.00944123355649
80.00951281628883
78.65257758502793
77.17898415686153
77.8091392015359
80.44795313818575
82.11582172688324
83.35644020849557
85.06923624206031
87.46598941884326
85.38557900421424
85.27189092663085
80.01804424703502
79.89570798896514
84.1027821670974
85.7680882083553
87.80809024999077
85.78056709369133
85.79114343489036
86.85492351559014
87.17133169911187
86.8860187391309
84.0500049897785
84.49684828016956
85.06080244292751
86.06540540972986
88.04679670448635
89.13895441702657
89.71761178071121
87.50394121083102
84.7824203497065
86.0242486887717
85.85213547710153
88.21052838458108
88.40729558334607
86.42672797984673
86.03802247053501
84.94197721267254
85.2872768985794
87.53706674861961
86.56438982893887
84.67658218903182
76.09424275341014
71.82435653437832
71.66378368891553
72.21078092727096
73.28675844264671
72.55489452458698
73.8178276558827
73.02849924303409
73.01891768357103
74.34579048848354
75.40273543628953
78.60212656366087
78.1298286486545
74.4544085071527
72.94593215908168
73.48988529208002
74.65953240325804
75.68367292323015
75.7149901739941
77.95335591392526
80.08422622673882
78.87459608232162
73.47448962147412
68.12408050479716
66.58507293766746
70.17465670201646
73.78152808887411
73.48196223538298
75.76203987007517
76.27431031129764
78.13661235209159
77.9368531775107
76.5481788816266
77.76372348278849
77.94791132103764
79.16843708719301
79.10123701257656
79.39899163700485
79.5027379562388
81.44563099711998
84.97654369379842
87.35984442883819
86.56267095394419
82.81259129292077
82.04483527800464
82.89933476753546
80.78856462277446
78.32161840950187
71.83072618398779
72.56468100555094
77.57653904949268
79.14387739456528
79.90315371652362
79.94464811430925
80.78905039837282
80.41629212764119
81.28447803712776
77.30234062011799
76.23954368095913
75.53705078312538
73.5752759991418
75.63929625744942
76.03485769636582
76.47735991943257
77.18110345987944
74.0077205841674
71.10800210498626
72.53982725253539
73.32965936612538
73.9069875022914
72.8878828512358
71.37045854404316
71.05926385227673
72.6450996057555
75.09839923932007
75.05758635770229
72.67843126405431
70.38155408755216
69.84745857324236
74.16194919661625
75.2824223186537
76.51191947760422
74.77235550174576
73.11133130244372
75.16682405302797
75.00265037818836
75.73270932730028
78.18086300504677
78.69381873323984
81.67958875324092
81.15765667598025
81.64992065720494
83.56139745201497
84.1039709884874
84.4636060761324
83.7128918078964
85.12406895668101
89.01597453488691
90.0259896342661
88.5888821374052
87.96321323100489
89.79169639876547
88.11209633659251
85.09808568501003
80.07496008862685
72.31134256525694
77.68607639240491
80.98061129194423
81.92109385066809
83.10843253536703
82.60389039517935
83.91798627430035
84.28215347648514
81.4553001313908
81.32106214026857
80.8113535899883
82.30140417162511
84.18271033436451
80.864664567061
81.68060639689183
83.10886913924877
80.2597084394876
76.39312543882421
72.92968804789604
69.89625185078505
73.57291030012523
79.50157600443643
81.72174721146956
80.44724846503658
76.25112390200388
72.68418755519389
74.9470935229833
77.6958585188701
77.033969369116
75.46855847205923
70.85494368924446
73.72693122630572
73.67081341810594
75.50526489088391
78.22850333187151
78.71996422776415
80.64238203840887
80.55077876369832
78.73356403529542
78.8215902671125
74.13829320275012
73.0559637187188
74.9769324033893
74.66039007277362
76.11092040115382
77.0630723532819
77.1701189966817
80.66424550291384
86.01911203292859
84.31678521206695
82.3455623539509
78.15264034054991
76.116002301013
75.98703182575449
74.83788111085522
74.95347405050421
76.11507847222022
77.27836336526101
79.22412130038518
78.35921347340049
80.12065474556796
85.32020570552424
85.34695638970753
84.98879621063428
84.96228840185186
81.68223317792257
82.98668839586179
81.10387404040594
79.53843859655962
76.96261114588899
76.1348928515616
77.37121462563158
75.1025990011255
73.40106272716986
68.89087091438415
70.07819184496472
70.76367194761357
71.53491346280236
72.10819531001123
71.51874861538155
74.4975546616668
76.53603585773162
79.83341521114016
82.20356964544973
84.17756775195271
86.62567120865893
88.63756357536181
88.44363888091442
89.10358277257718
87.19127258716074
81.09078422774753
75.84595102947083
70.24565797308068
69.93518127476008
72.12786753613534
73.86053988794424
76.20867103938052
77.61021405198743
79.57345618978891
78.1260241881893
76.82040060734359
74.03588284374541
71.70399659425999
68.91723371935713
67.50951622821803
70.42360849355775
73.47984367020413
73.16432212298524
73.99115603083929
74.8002494650797
79.78341845532688
83.39827417354786
82.75711069470827
79.41501068755684
76.11509488200839
77.13678907355785
78.17473181276078
80.98499255433809
80.6231638822853
79.1946440369567
78.73054434473636
77.22468288292532
76.40697097093765
76.14313600971194
74.0567986525344
73.98330039900391
72.56635087932585
71.48399862481023
74.9901908856903
78.97833266034944
79.91058085058798
79.45055863129011
74.14822024578262
69.20467629132986
72.93836194397402
73.56819619574352
74.55877538415137
76.01160274674018
72.3726813754294
74.11210958225145
76.76268622906207
77.16456593829061
79.68077084590671
78.17835274782058
75.33536635048661
78.0583230099742
82.02777384942695
82.20396769696293
82.00511376120213
80.7133338668539
79.09567731481764
81.70177733103479
86.89111762725241
88.31060022505584
85.16713871213713
79.95987922621535
74.60995375728018
77.8160530058596
77.9460989520516
77.4257017602687
77.16151924995562
79.40331444190687
82.0286493406459
81.28663652279225
81.59792913888305
78.85656442605604
74.53099999027023
70.07282673790606
67.02757137294662
70.16090375583556
75.40589841862145
77.48713604213177
78.73994333870802
78.3431085582354
80.26844074341459
80.54032384407479
79.89908816493133
77.90654671288213
78.88480749656787
80.72954191304673
83.01558001167717
82.92294700262504
80.29077062100137
79.48922648342268
82.13817796573993
83.94821614852414
83.40695108570975
81.82434460316632
79.69758849697068
79.40916383879372
83.12091413948565
86.90845484909926
87.80283637121701
88.59471081468973
86.10372888072513
82.17260702353812
82.85346671438575
78.3990146251451
73.47369510388101
69.07951575929962
70.6889091514699
77.30249706106179
79.38442586569589
77.22191654379996
73.575798588033
71.75907148338258
75.73925682310704
78.81730104966167
79.37789807797486
81.51695640327077
82.54974882443074
80.2033506935268
75.52412189450884
72.75980218367229
74.76891417190092
77.60886258006082
77.51004037074469
76.68337236853947
74.24666615594444
76.4111696237706
79.3773339476439
79.29990958754003
79.71110675961054
81.39043681017193
79.77140142413121
79.82227912121971
79.11092062613527
77.22863048351304
78.8462870331985
77.34294503695689
78.59021385311581
79.30372090560377
81.56534162691499
77.91895773891659
75.40570799195842
70.53388537416139
69.52001258114953
73.21244948499732
76.3189417097666
77.52053358033488
76.48518674787972
74.45112774060408
72.62056069727186
74.62195676696103
78.8637947455417
79.67379266570403
80.90809449498258
81.88662688382435
80.61688329079439
81.16287664501412
78.30389354886785
75.70262421822979
73.06798086653852
69.03630818957204
71.11698328945465
71.17922545078326
71.14563887305835
70.371508007845
70.40345973443426
71.26936960652795
72.52977031025742
71.2729942693892
71.01054109272195
69.41622582478635
70.55625817351
71.82969194283035
76.68539526234109
81.61160611091374
84.95179642576139
85.09012920625975
84.6993165933968
82.3811188260543
81.08125201333642
83.87994860614725
86.74763983542621
87.70395568788395
86.04849950870694
80.25086027281402
79.8931862317027
80.53856520841549
82.9363509387675
85.77903704636479
80.31829034812449
78.09964638465844
76.52323354108279
76.62341454190309
76.06685861498144
74.66899461652008
70.48985647530573
70.24832003848744
68.80004594342094
68.06673402040602
68.64141959728221
71.16128402753537
71.75081717562372
70.46421659411338
68.29703098571898
69.84364928546098
70.29988466823254
71.02759664713025
72.32645663601818
72.2365871631652
73.09204338752949
71.68320779893321
70.97217383976944
76.76830008349347
80.90146101460405
84.22705449135972
82.63835530160881
80.34397393111074
81.37101078400971
85.90972934947442
86.7365538924975
87.9739839342765
81.89214213014431
77.5450867807662
76.2423025096313
76.14650981565947
75.15195571738272
71.54888375088834
68.53484981462401
72.37284631037681
76.71008115523819
78.34504945687314
76.26636092057952
72.75805824697471
68.7250638965738
72.18650327050412
72.4027264042066
70.92207045609614
69.53499081793741
67.28024865843093
71.30005239662232
74.29822240265462
76.90675803633994
77.74063594231674
80.22849342135109
85.04815423621656
86.65330716936113
89.91199660506032
89.28593108552447
88.59745096620522
88.69886887442927
86.57773457683413
86.49693220498189
85.36807905777599
85.36271371535597
88.4731930165869
90.86912868270782
91.57164214415307
87.6420712218462
84.22739322239897
81.96025246088715
80.79183177062885
80.45663401489455
80.08969216606425
78.7363289957635
78.35399040837788
78.6777448389209
76.04809792241014
77.7723557237211
81.2240221031933
83.58555298736158
84.95873824673797
84.0528118053721
85.14645773645438
83.2326116365024
83.41340823006291
79.38892505411017
74.07880031706945
71.72530858587487
74.36338344737753
76.30818199372081
77.16678175733293
78.02425218841077
74.65975262578971
75.43471258899869
75.99928321161694
74.80522122457549
75.9762818144943
77.09265750225634
75.52488409041514
78.15351625238729
80.9831046515519
81.02753311360186
80.90726453435613
80.540968661961
81.03028660257576
85.67238610170719
84.93151286149032
81.06194415680523
75.0224180611205
71.54449431764556
71.08065722329027
70.87479861413331
67.4550844709862
66.82625859143009
70.27477119209499
75.66022984411521
77.445222933613
77.2584082981652
76.36010916398044
77.38755467029623
79.98561976441589
79.40748212689762
78.43618807452683
74.8654410199256
73.41452074407611
77.62314435725351
80.20298189719571
80.09425302979184
79.64156360320088
78.1847972378724
72.90150463026343
71.37204116511222
68.60959766085001
67.25725116115336
68.2439145376352
68.35525420633783
69.66193839431153
71.57192861902323
75.59420134989267
76.52825332855701
78.18899199575976
76.72736328351951
75.16040515435346
73.99189360121275
72.61381148814641
75.73911354081257
74.07382284965875
75.27971726203324
74.1979728179167
72.6593724267205
71.14900007194197
66.26683623944297
67.0831475608151
71.52609191822678
73.18690480336565
71.50154058186925
72.32145085967083
70.49822104848847
72.16639296348838
71.5942665398592
70.24601571656456
72.83447203207905
75.91340415072717
73.75834199491844
72.27051185511725
70.05210569553273
75.01587095192585
76.67310666580698
78.42745708674991
75.83688806990921
71.03279121372117
72.98705945357923
76.06722421579377
78.66923792416651
79.8603464851971
78.26956506873007
75.86891011232889
75.75950749251777
79.25919425125645
76.16786453871023
73.76153087912371
69.45157521488287
68.67564866732477
75.04052465116152
76.53851900656991
75.38363836648688
69.49057469053116
67.53693292040649
69.87043590013748
71.08846847301369
71.9951397497597
73.4604430784512
76.63913227449545
78.40134182957733
78.15149775974494
75.60612610171549
75.1747251992951
76.31409448814664
75.45108645961237
75.60170770893552
71.7161203299706
68.7429011473767
69.33371090408119
75.05462048669577
76.82010254101107
79.5382716314942
81.71534272630691
82.84147480545066
82.29135321303765
83.39368824496735
83.36500616121143
82.94703361430166
81.20668062923227
76.42036155382861
74.78253396073792
74.71256423880119
77.94417433049236
81.69109222165169
82.14087430050581
80.91776058354483
79.41937291974176
81.65669849400665
85.11858458103754
89.5044017601893
86.57039351995674
83.78132610377205
81.14530417588927
77.48203728122462
77.68409622184741
77.56512952061561
79.34424256874269
82.73259850347662
80.30351262246684
79.41188543718269
76.26897267159609
73.84543563994619
76.06861414964169
75.1347807488614
77.19760392928764
80.97526053016433
83.78102664576265
85.80703188243503
85.87755841327525
83.68588127224486
81.16541877977875
78.51687086116318
77.85361702777611
76.83022745965361
77.3587621059533
76.92588564511375
78.06916027206536
77.31126403305532
75.70118693159128
73.78577822482204
73.97566356741979
77.97599724689785
77.97103190750477
74.26712791486315
71.08163230100358
67.45645754835527
74.68635565839085
76.73332802075949
77.57457066726737
74.63036108195875
73.35676779393405
74.245163678291
73.79131604926651
71.63779575956652
69.22630846974056
70.02731453324043
72.6401160596435
77.42080016832003
78.92705863038822
77.124292092195
73.86158140966285
68.13356927756365
66.40591872685113
68.71142228759236
73.00206596353041
74.89844577057657
75.84551259281918
78.25061053823214
78.24455029419364
81.62841578060937
81.32181804070323
79.43456513910851
80.19913616466535
78.34715877129737
77.84718975739126
77.36015142366043
80.30359832616445
86.91742077417385
89.39365721948512
88.08231659472172
83.86629185146214
78.62895290107815
78.23031867923108
78.38508018642432
78.98484363156656
80.03053668650982
77.52468409335444
80.4560647509298
78.85685127267045
77.70542856816753
80.77670238527713
83.40539161634167
86.13993108565234
87.88284071168714
89.67188571671967
92.34689079057036
94.40936946263223
96.76170598558645
100.05251058368492
103.33249491971658
108.07808145727196
107.42474512713969
103.92454689246966
94.69943917308042
86.94523827945399
87.6033553005952
89.87309666740944
94.15355523652323
95.51929685949784
95.59073802843353
96.15151714686324
96.05415777034737
97.13499990739416
98.21574617605428
97.64677310867093
97.31459072158769
97.20109277601718
97.9158944121283
98.4350833106899
97.00096285132594
93.37309260113574
93.8395869123516
94.09031192896488
93.80060291016788
93.16713121577725
90.27961251004234
93.51711840081822
94.23904876769478
94.21222535883568
91.63097667233168
87.96981123317697
87.28217983736805
88.98397265948128
93.33510728973805
99.25817812161263
103.73300517086342
105.67514411492841
102.40326540074349
96.33152828299866
88.99335085783994
81.90339671041086
83.57745930564724
86.1747934080628
88.1341915600499
87.99767565456416
85.9142631224565
83.87777279821827
82.12231236178155
84.04875928249349
87.28360351499038
88.31833900332198
90.69195777706227
92.83826795259604
94.02654113616909
94.43526537159045
93.9309081136294
92.64627787228683
93.14242466514015
92.49484625139183
91.0819258946295
91.09050679475136
91.20085804896877
92.96126152757355
93.85265074709439
92.75372798752463
92.5813119403963
94.62306586677991
95.67975807603075
98.05056262788493
98.91413269941613
98.36038227164099
99.97752849577427
102.37418440009188
104.53066390966025
104.66075851851501
102.4329522539527
98.6173460547422
97.4408153864676
98.09819839874318
98.75612575000815
98.33526895530338
99.03589109914873
99.05809711188573
101.0058506325824
102.0486713516597
101.91970786423056
102.20756037024393
103.62570170603095
105.38953571294815
105.33600124864967
104.16244078801128
102.65336254876357
103.73890886773638
106.41267966839983
107.32803322241399
106.40287810702333
104.91648188136493
104.55785160726711
105.1627567577944
106.04509352842933
107.22894421763726
107.84593018225489
108.17568863530369
107.94866609909101
107.31299739548098
107.4251841678199
110.06154894487109
112.36868624951697
114.77711202283844
114.43779861433379
111.98683404437443
110.29886198348815
109.41169510795991
109.8140242911019
109.02473151567789
106.86341624026448
104.43006834624546
102.83218195822265
105.03854803413273
106.78831164314171
108.69324868845852
109.93796144620231
109.48294377386229
108.30464338233342
106.44609537417321
104.3961259339011
102.81857172117796
100.25578410716894
100.30733448172873
98.22913419459769
99.17718801850589
98.78872459203218
96.85846236956189
95.99614198790702
95.6567124520776
96.49481011840639
97.99050081770334
99.54626605737286
100.19037373808696
101.64164828047252
102.34475249851856
101.91879765737941
101.78218373763387
101.6974233881226
102.75364037989499
102.86837794311799
102.8043627437737
103.20385941210958
105.15504792404471
107.94780438592753
109.41286767189116
109.38588028898411
108.21446902056253
106.22274050861081
104.54966927178694
103.1023863622701
104.03786133401883
106.93359666658942
107.96241689184782
108.2307076194915
106.27374648277691
102.53187693091321
102.52170890756331
102.49092635247187
103.08723329234515
103.84438967405593
101.48124780918594
101.9066031660489
103.43914584610404
105.43218270475985
107.40864949445753
107.84969928204761
108.0435337500361
109.600092250706
111.856678477489
112.967669050876
114.4055723642301
116.0457797178815
117.04731777935714
117.36632906140483
116.25341734797362
115.66148212485719
114.8328927766699
114.25925443677336
114.22100048308711
112.82593600533755
112.99685507987866
112.6538782552345
111.93116455337612
112.21848865309407
113.09527548317742
113.46569026131269
112.87952436807531
111.30683362099064
110.46104161864899
112.55680666167437
115.10484169591442
117.23949243983999
118.21784560376771
118.09914357796103
117.84365386831999
116.92804892020156
115.18581748867277
113.58777220648138
111.55353842279571
109.80388126810494
109.13053819265544
109.14906309857818
110.06065353612443
111.33348681548425
111.31627910615269
110.96316754707678
111.09266602951644
110.78920904357044
110.72579999354218
110.4477283370032
109.19433812392455
109.7242643641875
109.1882898604698
106.94831719877877
106.69821187870276
106.89588931872525
107.10005496507033
107.59795262682411
106.2285474453791
105.04210320283906
107.14410871497861
111.18174943586511
114.12208224531875
114.18003514080314
112.32860408033244
109.77141873394596
107.04630619108265
106.31206020601482
104.57874658547588
102.65327843407191
103.04937950361507
104.029222274481
104.94354252282061
108.11317240099648
109.38463278636134
110.71546834020376
112.13844059816442
111.73882912791507
112.5649098961709
112.32128266778788
111.22466925000036
110.0320058479295
109.5202616217074
111.35624772056735
112.79648062231607
113.09633268425455
111.57282311998028
110.05343812879985
110.53223700668119
111.96912461028862
113.11934140407469
112.56598789355758
112.56550034622158
113.45919399455191
115.6865907610116
116.80597463136995
114.57436876102788
112.33820308414235
109.77199052807714
108.5428397574087
108.84298336653268
107.51309624373349
106.55844434636839
105.43839582327338
105.09996270644226
105.86962941201189
106.5136149203257
107.51093381637833
106.77023948256851
105.50072341443503
104.22772097027251
105.75481607932156
108.79634983767276
111.30631295201309
112.16994822515169
111.9297174879101
111.67306699194032
113.71400780914927
114.59656161063529
114.21899842292156
111.10790658466361
106.8049079079851
106.09713626814639
107.74019668009888
111.26406288908278
112.44936488351878
110.69163083875948
109.85890183774885
109.43205947847169
111.99749581887556
114.10563925169694
113.46187209530845
110.39626205306217
106.6151659878618
103.85283248269953
103.7555502344285
104.98322787491587
107.04669904989935
109.64723318564394
112.41354976095646
112.90588182550425
109.80797834648043
106.0557945265974
103.24123864781225
105.79050671306969
108.51490984328925
110.65473961602957
111.2957942274709
111.02778674002026
111.71069129394455
112.27017887366117
113.09644342191218
112.86247408086989
111.79992972613624
111.5791965626709
112.08636163050946
113.84554627632102
115.88097755073731
116.53584978460204
117.39812213142609
118.65871644989441
119.9684203658235
120.58654691368734
119.53169090320704
116.68158309988733
112.70598353991491
109.24134504604035
106.50910714658049
106.33961064274628
106.85889224721605
109.14756890122997
111.48945053536279
113.49207014087187
115.48438194663743
116.62253722617787
116.96315373995922
117.02930633981985
116.705127733267
115.91261080143325
116.40633880484208
117.8229068078828
118.57394151163795
118.67079966506935
117.41598569423368
116.83334753411783
117.03707642864012
116.65121093571027
115.83171195668938
114.5421072614311
112.94172766830233
112.18414453705695
111.51390552264567
110.79035721298678
110.16521433565451
111.30593487006169
113.72403099306298
116.773966609486
118.38723958928168
118.1327054058206
116.21793559034998
114.01395383410294
113.93519908982049
113.63647776330983
112.10645852380144
111.42098676502589
111.04094370275149
110.95319327503277
111.65834380765203
112.28843891905298
113.47182812316439
115.57176806271202
116.96922149267371
117.220160715284
116.79719331838501
116.35007868583277
117.0433935211227
117.02366121712181
116.30636178389585
114.4585080702769
111.89405890997084
110.29828258790641
110.53074522272368
111.46814096154515
112.3548135894072
112.78395454219576
112.68294380368931
112.04222444158108
111.78639265152533
110.58180215285347
111.02849367932166
112.26793375758622
113.46845161561997
115.11102869894582
116.69523334597423
117.9274004266133
118.7035598990023
118.52705197544695
117.37341611130289
115.94833656669289
115.99620699445644
116.01359847355216
114.55840556833571
113.31165654867091
111.65866986516058
111.62255840143698
113.79297099083968
114.19078372353415
113.72243533283257
113.27663797490462
113.04675206312463
113.57221454264219
115.109974280246
117.8845222014518
121.75890153296736
125.27963408781491
127.68277060730918
128.96556024421434
129.80478037430373
131.69050765906485
133.68453334544103
134.13750598748712
133.19729186819214
131.60259666912643
131.07842316221976
132.17634506458432
134.7052644634734
136.2681234257784
136.31109925709407
136.1189582658348
136.02584239396947
136.9459737573573
137.7398899833194
136.916073660036
135.89918130516992
135.23869473631547
135.52529011002738
135.95882559108688
135.60908601362624
134.12401732082594
132.0638190251674
129.07857069958416
126.92894542595174
123.77568883570187
122.05809409823856
120.58584315471013
119.66743419648147
118.71871980667771
116.35059092916678
114.28833223729931
111.0198629360031
106.385946597939
102.09249595451536
97.80082329163064
96.58338155466025
97.95865819622442
96.96943670060524
95.30620139740627
91.98975955350537
87.65934492759654
84.82637379059976
79.86543494927149
79.52323325607368
85.93561149878903
95.52252379650984
102.65188813178345
102.90705621423216
99.81156426010921
93.53083914075681
86.46173305492167
85.18779509538973
83.54670319738763
83.20525769853637
85.2897906108472
85.98342343892317
86.27595420985234
86.57479603166168
88.85299224949286
88.42965701159304
82.72895218441879
75.87399326031306
69.12963299570629
68.32645540174586
68.48119096383859
69.08589476064816
70.81193750415667
73.35028714054698
73.93230260794358
76.1094400267443
81.1919833848283
86.47718150436995
88.34955568067713
89.34250933710943
89.90856587574241
94.12769898636044
97.5462211203798
98.22013422789901
96.62337141253279
96.1564517346524
95.85802908980617
92.83994403315522
89.93607064592207
81.57498468225191
80.90440572996823
83.74147134971847
82.75871312592761
84.46166018953853
82.3936709258339
81.57986835135986
83.57141010516511
81.38594685983635
80.1773827303239
82.85386188961756
85.44422005148989
85.88649824026872
85.70888454160762
82.21753402601807
82.2303893700524
86.39339617115499
88.76568988509976
88.9033592230291
87.86324412314079
85.54154360499251
87.54376819513955
91.05099972941083
93.53127563629182
95.28493856598176
93.91386034336543
92.72053890411718
94.13495489442569
97.40651004029674
97.82403229165067
94.57517419071307
89.78898609106305
90.19483943230821
92.13806778725281
94.55062076827411
92.85788744997465
91.54262759464257
89.93829604490595
90.33786693619334
89.15175474098913
85.76363062451318
86.38650855641028
88.46542670633518
89.4752498178903
89.5223072150631
89.86400142437917
91.166328745294
98.43867275489886
102.09913914952087
101.42156013290078
99.40796953754466
95.9164231642543
96.6542709910944
99.36378318965268
95.46954966318765
88.66463030691975
81.65906601200464
75.8319838424952
76.5829474346771
80.49608809383673
79.21042990133213
77.8188086891287
77.97748189665677
73.29454855843804
75.65072354037265
79.76545415055324
84.22220431276106
88.25537160111664
89.89037555724134
92.85826348238605
96.9135848104953
101.87982309621003
103.93016802302192
104.00465402212691
103.3287414407919
101.80212011549212
99.93364103446208
97.71259286674996
95.69140451348801
92.13669422707989
88.34756566097552
82.4393411509142
79.20173655137269
80.6344550779925
81.79156204904085
80.92117863338107
80.4632596016854
81.87691840272137
87.7002048843182
88.72581138148531
87.5870074148504
83.67137293062964
78.58949569746285
78.32124749502437
78.31773793090771
80.39595449893929
84.55534195960378
87.19860481390972
87.11977164903759
87.51090822240441
88.54288076219615
91.56251558335221
91.45529443462942
88.97200359433054
86.08045198824166
85.21958738279338
88.9259717966529
90.81229143942164
89.66210141169171
88.08382270868137
86.51149000629232
85.50096947675004
83.9455454408494
82.01120260614564
80.22038144447102
80.00582833700498
78.58640566989052
75.20222084249447
73.31449798451723
73.5096299826689
73.78709172186473
73.0920886905832
72.12202602289886
71.72190548353359
72.23318863643479
71.74103667472883
71.67881104837558
71.35120150882804
73.17252539450767
74.15982984716402
73.99638338414256
74.13727851211004
74.2166489664031
74.69311028301564
75.06150634321885
76.01892933056713
78.64239144764316
78.08014209759679
75.69059117664983
73.41314162876003
72.79450343239745
73.34113512680523
73.46060433703474
73.80578628737194
73.61513504661298
72.12379084354384
71.47874163454654
71.57709168463985
72.50147264087383
76.19997812887325
80.16798181801913
80.1568426469424
79.32287181161318
74.72363520634843
70.78749725580192
70.36362005342818
70.87140339295732
68.86318737290684
67.37820981457978
66.60591604381074
70.12288304326133
69.99661501328794
69.90541101117215
67.0230008588322
66.01481069917057
66.26575592428907
68.31003116105315
69.1687144527843
69.39808735216286
69.65915971205575
70.29689248807865
70.87062605604379
69.7360932059172
69.43428507321404
70.13287463179753
70.47040954506878
70.66271214342967
70.51381090982923
70.54849722086266
70.56022570787533
71.82208507156264
73.14047958081518
72.3598056749484
69.70277048612311
69.00006854363598
71.5091195277165
76.21133948648041
76.79657475835714
77.50385557071921
78.66188289985851
82.45582068621611
86.0114119970816
87.93445777741212
86.60656808734765
85.00201317399386
85.27154192781963
85.46564574336674
84.77312022111877
83.28235438103452
82.4975592607795
82.22733947117976
82.24018867807457
81.98850106168724
80.98683094138754
81.57822620984487
81.43912703113531
79.71474487671549
75.66138597376087
69.5792940131177
69.06180328187412
70.79751302868065
72.17422298599021
73.09850214270624
74.14691610440497
77.19381088566718
82.16372691358845
85.54354759972088
88.5544600768587
90.37417587387091
93.2566267047117
97.27761927333495
98.61643980813369
97.31317175685224
96.68849252381756
93.56736166586695
91.413450973729
86.05884458216745
78.73340749443244
74.05132727781488
72.58855768863043
72.118120462788
73.52209419969589
77.37210290683782
78.59769992445692
78.09465849837827
76.25619326288997
72.01999781468825
71.74438178546662
71.33202800283522
71.4811676930202
74.62032791721275
74.46423899505245
73.4746775362998
71.91205020641036
70.50168981688381
72.44623267839337
73.12443499457349
71.85910493691881
69.72465024192778
67.2512680824326
67.22425099832532
69.96757086035527
71.82303767367836
72.58961706073154
72.2542267152088
73.62641557050206
76.48644882253305
82.50650558780964
85.7396663806738
88.89727643571875
87.41746391785867
83.32834673348842
81.08564752349092
79.19467628143629
77.84577781452995
76.01020596255074
76.43416375797146
76.9697714459658
77.12210006378115
76.72671544210013
76.01036399775026
75.73151527487254
76.41164107574293
78.00325397122728
78.48412107622084
78.80091587872722
79.37839201577478
82.83037552222508
87.03983317682788
90.47254749513503
91.21651896847402
88.77048718506269
85.37771715410813
83.53608986007707
83.87903451834549
83.31516919252176
80.19938513991892
81.27369816769789
81.98829258185722
79.58502676347442
77.06153015543696
69.94165001985925
69.12192637104869
71.01562957675964
70.34849976607636
70.43651730390545
70.4107141986008
69.39049683317614
70.14232459189624
72.26669767127981
75.54431512981458
76.07432083558167
74.10986842192943
71.81682778045916
68.72016519467275
69.23945100511726
69.2340262164472
67.43966124401346
67.12258305187139
66.80313091696189
65.61132142551182
64.77430702099859
65.41040168731084
64.45421615289571
66.01155052118227
66.42809104830043
65.41895412502984
64.64015013856616
64.00288127237683
62.47373631991539
62.477277417607525
63.4065493426261
64.77771756384287
66.6103650285095
68.7978388503094
68.5172682658829
70.59726400801316
73.41111963523144
74.93269648575411
77.66273335350338
80.4078161195948
82.80159178863065
81.23051123311681
80.09162629489074
76.64480729220001
72.09182925875423
70.67564837683875
70.16095614811442
68.29708845146538
67.50961792509167
69.13276663040783
74.30273357651123
77.86236060031459
77.70418552811167
72.5455865376294
64.96932196947013
62.43596038953255
63.46746737475951
64.48104277791484
64.75964762159563
65.45124808768261
64.57933930503197
66.37313658515781
66.18063596770487
65.18094314166045
66.32938700809586
69.05636187408862
70.07284423217351
69.50291436538294
67.79445370545604
64.70297234581489
64.95871782399921
66.44292344728251
67.66883788449749
66.73956079627445
67.36181388217405
68.75211012812005
67.95928847650306
68.17695464084892
68.05269441352148
68.44361955155985
68.28349272046609
68.36135201855643
66.94121520699474
65.05385789054735
65.93023402012824
68.89942548503838
71.62323782984673
73.46997565394109
74.49505839810392
73.65024532231702
70.97430910863218
70.8447344595806
71.14577999419092
71.15229272365895
71.13174482035598
71.400475220646
72.6753297325127
72.90567985605834
72.27465967802054
70.68308950829808
69.58808747500913
68.82520432555131
67.2942130173248
66.76914377572855
67.0516442294138
66.01258538766598
66.84052463629514
68.06473770801479
67.59627383822561
67.83047016960245
68.71405982215256
68.65512650650172
67.77750367839026
67.18644796142274
67.04500628102241
65.5047017383064
65.63180625531541
66.13380345201958
64.36733194252199
64.31178787741231
63.83360091115661
64.04329837851697
64.74090408016953
63.73993180946208
63.559353228458804
65.10201486434073
64.66618688954509
64.12481700014814
64.14864564774301
66.21413623739974
66.73431686689023
68.30573819310668
67.9887179507348
66.78782436389386
67.08955731791107
71.77993015025862
75.7156948292095
77.64837563899108
75.07818597202721
70.23645017059675
68.36223953239839
68.6603409634723
70.54438050416445
71.23751611758266
70.36423970995745
69.00650480155984
68.032140566088
64.95217031986064
63.789689323350224
69.47679358552728
71.4893622967151
70.3225283757462
69.08140169377978
64.13959978360988
63.19455804949116
63.6095937366481
64.9558938730249
64.7402373375415
64.5127815441967
66.4065896505708
67.45064588560207
67.65706076421014
68.21143180332325
65.77028057866471
65.4831053274579
69.06221938636901
70.36189137635971
69.76752219035046
68.08066492496445
64.66066724004524
66.14574085377254
67.54586223909146
65.32797385838663
64.38127105265069
62.36302676956246
64.00655436168901
72.34292062085274
72.23244494653066
72.38934958384436
68.74638286616319
64.96251970024481
64.88133614374753
66.70274116199832
66.88765016408374
65.33496060897224
65.03880711916639
65.75744287963099
65.34687962697352
66.51836985163646
66.54320081096151
66.076733190811
65.31275167390926
64.77527903477765
63.755111974520425
65.1408634815464
65.49190222984262
64.75452510499231
64.40523281804049
64.96694242834283
63.77228092145134
65.13612825086082
66.36431400218014
66.60395005908832
67.01813018307496
67.84031524439047
65.50532592648972
66.98824411815153
69.42335221717545
69.90976023243824
71.86815145976657
71.26598561592537
69.74583764274082
68.64150574025422
68.30777033444662
68.5414399788111
71.03398403969899
73.4979581099651
77.49327254637421
82.35914342551357
88.29689524064098
96.00058239948847
98.55426093070962
96.57010678474057
90.66925022046209
83.8801568722812
85.79425103428362
87.36595486280929
88.24630678903065
86.38530928385877
84.6122680395132
81.78615851478294
78.21232666784562
73.72282206513158
66.90003703905126
66.16442830807
68.6984635669457
71.91174881096104
71.29534515600652
70.69097777871619
67.17077003380072
64.26510231570042
67.19061602765254
68.24786830705825
66.74929552785356
65.51031661520618
62.0989727109957
60.33027220295766
59.3514691903301
59.43049374488025
61.109571154016926
62.09148711026599
63.997114945303544
64.27453700654812
64.40694907039543
66.232857154054
66.32846544933929
67.18293393126406
69.74605533564213
69.654259472647
68.61496246943446
68.0036919000498
66.53430191645614
68.62667152992184
69.54316184054085
69.83272299016805
69.48612666662683
68.39959875615584
69.54821999691919
70.03538785359707
68.81662900169769
68.09226203146758
66.81621256304962
69.2969505753569
74.69283744162166
74.49699318652804
72.4209068228531
68.57988971783396
66.3591747165884
65.84353258316125
66.95619227191129
65.7261284407677
63.89585017246012
64.02373898957575
65.20509423464208
64.79025839677759
63.98693976416108
63.96473769026157
63.48282905902915
65.25845952398619
65.98884091385906
63.84326009953676
62.78508834045613
62.505148428490024
63.68403156117526
65.9053962949229
65.31532957197435
63.31794804543947
62.05130180929683
62.712203050877356
64.32711920009268
65.61810661540535
65.7181857729874
64.34381067219718
65.18228148978628
65.10111759960103
65.23747749638872
64.78707997165273
64.19681527564839
64.15944458449668
66.05339542895004
65.5041794909237
65.21663028288332
64.2629108836956
63.69087523221023
65.37434249659083
67.48003594281542
68.8475774325187
66.93378333026418
66.73977386135698
64.20116322893148
69.49045874096743
76.7450212819335
78.07112124840266
76.50915260218655
70.73006866547186
62.80853297277999
63.76020757003768
66.2800339784078
69.04321849759665
70.78721516221557
71.12621726800673
69.95434351053173
68.78409436385672
67.20736674649217
67.12752188618609
68.32389820627886
67.11607281240913
66.29594822003688
66.9392189226345
66.11913036987848
66.72600406163073
67.02119419048334
67.22659275737537
67.91243822583782
69.78632107066755
69.75096341491627
69.22494693536835
70.10878360372831
70.36423752965294
70.15175719345363
70.08442550662437
68.99824064299679
66.63690562667878
66.99757572192566
68.11702371884968
67.56521061791884
67.28881713204962
68.98318687777376
70.2383151406947
70.3953120677256
67.90117418066491
62.86598093811608
63.817211820739274
64.2918647234833
66.55699021926961
68.83374714508363
66.72792611081434
67.71172691660264
65.3501460670474
65.26248449140719
66.04938055979224
65.1390148629642
64.1417649089743
62.944784980294635
63.330295433735934
67.03040436679497
70.44159434106706
74.91792151363262
80.81869422222714
87.69725081582916
95.37558022485565
98.27301096822093
95.20396820794075
89.44358493698736
84.39582450541569
85.8847652012777
91.37704774535221
98.7957551063049
103.7248390078447
105.5969093464263
101.19083743019253
95.37247256208543
88.52182483060655
84.5470698381931
84.620840461171
83.64103737995929
80.87859907062094
79.7912973918687
82.26410054876912
84.90693756325759
85.61280273302228
85.75182572436384
85.70010980421264
85.18728660615047
82.07713619265654
76.93798406813951
72.23923650303034
69.61078288978214
69.25066527932015
67.2265836781898
62.970537311201156
61.31539259804618
60.074684459643336
59.85531886005047
60.28120209015538
58.9431394264124
58.05401543735712
58.40028250017195
57.96792171372309
59.50856422104897
61.92912635047805
60.84767068838308
60.76947042706723
61.942884597599786
61.204297970930874
61.822814584212225
62.859195768223785
60.099074477201896
60.04079941892683
60.927568081502685
60.521550934920455
61.490496221290975
62.552005333647536
61.02541658780745
59.53169050024873
59.95927676543637
60.26421158329924
62.19356323296411
63.371214893197376
63.43747182800059
62.223395512278096
62.811927954227905
64.59682357312502
63.50737454903571
62.24763752007341
61.74980557885264
61.00906581219184
61.04452303305487
61.79335043914046
62.170845268539914
62.109338170511705
62.2091082917114
62.525692900760504
61.13043326775236
60.71114843670614
61.66573939158645
60.515563105898636
62.037301535427964
63.643946761330525
62.71957189965064
61.793111510360426
61.715707811688794
60.80726638599118
61.882878422624806
62.72212658691378
61.22669715670462
61.24130820759608
62.045765842841426
62.9114237453846
65.34208400850909
72.18472081792144
79.66335328086998
89.1723868995152
96.33577375012537
101.32020624116062
102.53836714765602
97.61282684689506
90.33863335410155
83.16544487156986
79.24037018028318
