72.6747289184089
76.95480136227845
73.42384429351854
67.48395552540055
65.55187879195074
66.68703299588492
69.16981041884203
70.85042746744982
72.65611199985817
73.87305540921047
74.09102790651816
71.89763350593743
68.60593873962576
65.17403707633645
63.95027160845724
64.5798615205618
64.78062557817249
66.10226404716923
66.34445321558317
65.0926710131539
64.56250066767134
65.84747173527848
71.03390959769004
72.55836559151474
73.13813020784741
71.93001873110416
68.37463445863594
66.95692665107991
66.6876977258455
66.14646623836188
64.90705740135347
65.54376088035852
66.03570116627128
66.22486190705384
66.46873422145498
65.59905414829186
62.72326747714013
61.960996166530876
60.49407085681526
58.339004600596205
57.714201412360914
57.8164834121388
58.40066619915941
58.40937959529674
58.46463368813644
58.80593026340205
59.51436537601036
59.27933681383358
58.4306082712238
58.79768443135182
58.97434575926415
59.54908024421111
60.852582118305016
59.86758546212231
59.97335450295403
60.40258871725109
59.6269692079748
59.43979240408175
59.51850039369229
59.647503375619635
60.66302783253814
62.23138241458533
61.85723055503824
62.87958889728798
62.63356784792444
61.55825000188377
60.9343099745181
60.323045598294776
59.5721167697962
59.10717139829675
58.78700428153458
58.69285129518514
58.67577981462364
58.573371262902654
58.144023440812624
57.426086308884706
57.59906108247169
58.476891631798196
59.40101566737733
59.78071743763532
58.78043157597843
58.71202665379603
58.904021473110184
58.968732962326506
59.63143804983789
59.79536239192661
59.750448598339176
59.082174619912195
58.628210343626385
58.76159804625453
59.80644363223722
61.04148514003564
60.60612958890939
60.18672560558178
59.663598434620326
59.448460029502016
59.84596990250267
59.75965575993474
59.429672923138355
58.862063134376555
58.54312673987139
58.50503960397738
58.81079938796652
58.78958489144817
58.262767197708676
57.34954900447303
57.14345123002811
57.889560394632134
58.29455446917154
58.29635452005238
57.85626876246724
58.407072282666455
58.002726238069535
59.01804977813401
58.760063497418244
60.33084723272515
61.98697914327045
61.91437654255663
62.20647580031446
60.826761257286925
60.068909824798425
60.431649479613604
60.67497493251117
60.64430191836076
60.40976409139323
59.486742520619536
58.997740889943756
58.86582427159691
59.06133794599591
59.06152490437582
58.700969813859594
58.953275365511935
58.17703734340528
58.05557392257784
62.52917461828625
63.20756888289501
69.18454083858478
67.60753430960477
65.38231644837057
60.87357665613603
58.40764187749699
58.14517254968508
56.91430392336736
56.70077792765566
57.73448874327493
57.47489795499573
58.38667798971295
57.803879224889144
57.889402179664124
57.87851893152244
58.756289517133496
58.77872734388762
58.93701004054399
58.53191443658319
58.28444152829157
58.68224826473283
58.69143983739752
58.800365569473975
58.48485437731852
58.0422517025233
58.07121500578387
58.75919018143829
59.19182267239295
59.903244244130995
59.035548568399825
58.822055962663576
58.362954886489355
58.60282835511489
59.19795698364815
59.87467191345779
60.91288982128902
61.13787179352209
60.44132715078984
58.3529708336917
57.639583649328635
57.19106277898806
58.264123592617906
58.868619423534646
58.79365690479402
58.93479742912198
58.211999352045055
58.00365445184003
57.95819706515244
58.3303433688673
58.85725686602597
59.76547292629282
60.68917532098368
60.5820919577729
60.43549490263634
59.33842068979931
59.5956214785564
59.76990632552724
59.41429625182926
60.11507733074013
62.123740823054966
62.000296737281566
62.177980752947306
62.336116865206684
60.848071790443235
61.20915587235593
60.87820757169685
60.34060270686218
59.16120770687609
58.73668918140987
58.56343733080799
59.86199061864595
60.09614888822153
59.85863536012689
58.902755159884315
59.28383051527968
59.162773838734935
59.83373443428615
59.41748668576783
59.20090463839744
59.057914637581916
59.435520054839934
59.870737991339446
60.44059217269173
59.934828438294815
60.07710430640145
60.03776810321448
60.09414170233054
60.516926054050664
60.64210652700341
60.314901827140375
59.84852370514093
60.02527690074829
60.21905025743788
60.30888956158752
59.655406801113315
59.682175950683636
58.33069466991274
58.88978708900743
59.44315474129274
60.30729867660083
60.540657463812124
59.38514347495781
57.468016221949426
59.586865781468646
60.3817008284171
61.83982988360575
61.8935203218215
60.213042092105354
60.957627213144896
60.62397557504728
60.75820342764432
60.40812534670438
62.126810823557335
62.50939881043022
64.07821206080837
63.0281156567937
61.51840705779002
59.78121620009834
59.73379754643901
59.2201506589318
58.94569665887493
59.04274783149275
58.98777012817139
59.0827162073087
58.86426022174377
59.33547481191512
59.6622988625301
60.75421914144558
60.23368171569662
60.4227848046781
59.43543626014777
59.52419462123951
58.752513934568505
58.96685234325951
60.37230530967722
59.71501324640182
59.416641450844864
58.239947582698356
57.54348124391742
57.45654184508544
57.177557918109365
57.2708281732915
57.22842021254484
57.362336493500784
57.484781772703776
57.59331913197108
56.783234250251674
56.952058120524036
57.22239087291371
57.23709870454399
56.85162469820806
56.94926299763494
58.097432744268005
57.841954186539354
58.90860508526787
59.49774737263247
58.67786548436008
58.793263478343995
58.76588020428967
58.59402087196606
58.827087902098114
59.19172872915798
59.2969933183827
59.73348090348535
59.774905377178015
59.428382772262694
59.15415611614933
59.74901189400477
59.23819040626048
59.601338737205545
59.60146495863689
59.24347465082565
60.802432487757834
60.767892497097826
61.492836374679754
61.06890032824276
59.71557665063273
58.78018292492609
58.52287892102809
59.383160271036395
60.04008627036129
60.029882756598006
59.67827809110623
59.05103205058297
59.934566040026034
60.352595012839615
60.34160324566532
60.157263640202906
60.22890148793391
60.03155039930779
61.02112110526993
61.32258417495813
60.26967912255327
59.63767483805723
59.31728726584281
62.021318708944975
62.45701321559963
62.88119592954618
64.25193529033544
63.956196174654096
65.98289882128348
71.18891198995193
75.94391877497746
78.20215886894975
78.59138411133537
78.30300714023547
79.83533596266071
82.33914985492545
86.37430917882037
89.6639621578127
91.75545381187331
92.46372044924168
90.71515596915835
85.44354190848816
79.39810066680874
73.70635487388861
69.73412009484656
69.7808346572385
74.48136133878887
79.46168815115902
83.23438570500727
80.08876177447698
77.00179786195625
73.17399820966087
76.22313203808591
80.49002036273589
84.77216947051173
87.30030788753058
87.90464002194284
86.86354148677565
83.61667376127649
81.98290483722175
82.43814084592171
84.26029472324099
84.71138264708227
84.28790776978637
84.32158614605255
85.05411075297528
86.28568771916915
86.67496433727602
86.486781235621
88.14786320050999
88.15385116282597
86.69597179989447
85.24012242954323
84.67428223351011
85.99700517343729
87.046454029115
87.96855769480031
86.41204879779976
85.09117805335117
82.26028932965531
80.50236269125067
80.31483343775244
84.15763868476989
89.33916325641502
91.70094899865923
89.99542818256303
83.5668689018177
76.28064741565883
72.81385464543918
72.2144235106283
74.9297037402951
80.57089704474762
84.59947533875619
85.86966837342028
83.82615561501406
79.9086165825089
76.04391879675579
76.28857314022697
77.22540978113226
80.68838382374386
85.59319458749442
88.14245310877607
89.8044947615153
92.00681467844876
93.89319367097323
97.45507430985852
99.23405299844096
101.0105603768033
102.26070488699331
103.70640632184212
105.00355693962767
105.8987678793295
106.72638458567441
108.17606928723593
109.8741155676961
111.22070408751065
112.00797923249183
111.94368617183126
111.80076053505367
112.01321965423236
112.014487173047
112.63760034916093
112.67853514259555
112.71982746121412
112.27508999355847
111.59465867043673
111.88132686535103
113.50340066873663
116.05938923056407
119.01696575586745
121.33715354799659
123.39510381315458
124.796067484845
125.60887390552129
125.79936722580906
125.49543866170653
125.10019949178258
125.21935059834435
126.17745936913475
127.49121945071484
128.49695310767967
129.03606059790727
129.5885111254791
130.0379758149195
130.06321188485725
129.75715551875777
129.23598500301335
128.91955744608902
128.05592363489617
127.56847993517334
127.5427779157859
128.29605828336116
129.26655740014712
129.88387861199632
129.88450181333707
129.3303915412727
128.98896463527294
129.08868683760784
129.14455050634547
130.11889508927993
130.62283156649278
130.3296227876952
130.09504938324426
129.63802230717306
129.44525205440385
129.7824453533715
130.28966966772776
130.60717720377207
130.74383781102262
130.76907673954597
130.20134976144192
130.03485195140257
130.6266943656884
132.19978483650542
133.5789229334497
132.81418694872252
129.8288199625941
124.9964892729647
120.677721259425
117.49075218199687
117.05723390561708
117.24296331559837
117.56249023443125
116.58404192280042
114.38284367047491
109.06913913939714
105.42152317007361
104.60119235104773
107.05700062780461
107.24557849818169
106.0112112230843
102.68283047843907
99.78891404754596
98.84276390893483
97.25666184227534
94.90772504180399
94.68120436045261
94.90337912761142
94.86747380130834
96.03560934408576
95.87289671987915
94.38968796233881
92.82274496160576
90.9819745425816
89.1511645432866
89.49383735474454
89.02121255525215
89.0364588031258
88.88972149182639
87.581775364503
90.08063966316138
89.29556019159476
90.19447264734367
91.01717237686942
88.44661794970885
86.90903212285795
87.84465700514522
87.37568360361175
91.53368640233002
92.9035435540343
96.54391227199746
99.60149494195045
101.77479337170412
104.57454047624014
107.18282873399927
110.44952934297257
113.29886880866891
115.47060639088375
116.86657250400897
117.95483168516915
118.86106378851709
119.63971336768857
120.11724131406912
119.53975547171737
119.63409370967507
120.48034509047451
121.62656203311401
123.75851559907366
125.32180458002364
126.2812896064709
126.99554256509586
128.13363946647442
129.17539556707334
129.86770415286824
129.9181543475557
129.02884514131853
128.7278202229042
126.83440506582059
126.30789241898965
126.77235122272607
126.74308193765056
128.17947989270328
128.54277647378032
128.82042367145226
129.5783508857541
131.48844521450624
133.03347899498118
134.8947594057568
135.64657587985386
135.8489763129258
135.90190131103333
136.40373615496202
137.6330335816276
139.04047204252873
140.1135374280623
140.78563075651513
141.0538783170465
140.7079561486733
140.2919076938334
139.67423762106804
139.40961738714284
139.82670994434602
140.6108934742297
141.470488913905
142.83430505426819
144.11127865140324
145.1826668779917
145.80798992054267
145.83441868992887
144.0689798782516
143.98993854759726
143.36030432551365
143.25380047282283
143.39775628512595
142.69231449723833
142.68339877764572
139.2940018995665
138.21141319766335
138.18490798375092
137.90170987613382
139.59764966397537
136.1611206420162
134.6082703727015
132.344635328717
128.50230076793906
125.691034881231
122.8700430065286
120.25677485096116
118.51183652152582
117.20687814712097
115.52633796999625
114.27135576799272
113.26110857769129
112.42094375819408
111.71952011155861
110.56649656393641
107.9321594098963
104.63545192775898
101.57793716624587
99.78830097983806
99.65693687248832
99.49223472068722
100.5948869514399
100.56974282897697
100.99123816154771
102.0635976628765
102.90947346685329
103.3350059761903
102.8381190150736
101.42891216789586
100.53623423396282
99.71009634178415
101.23084306553756
101.76157721051597
101.59535936627826
101.74408512967292
101.72058950109518
100.94580797636206
97.09715997002989
91.54564221579926
86.14434078445656
84.80414957396432
86.84376401937463
88.70763845859501
91.95844322075591
95.59576248717522
95.17018915727613
95.64199538798856
96.10470568146651
94.82079668386899
98.57223480653225
97.70489221347515
98.21367781578499
99.00327683778112
97.51281996565149
95.61181745556748
94.09037173734991
94.44698649853281
96.72305990378538
97.29315879041012
96.79846538617879
97.39990821355691
98.52655183340903
98.72321831661343
97.8294165631388
98.45845063733448
97.15912120311702
94.26814948204513
88.68334232466623
81.55519254584124
83.01045529646146
88.7688420694936
91.20631156200476
90.59155540098398
86.70057949281245
79.12069286908394
78.29650510733262
75.99778986100165
77.63632460474217
76.44794856289948
74.29576503582244
75.84545065010721
80.84232205280311
82.6824515686718
84.49965484770995
81.35712791600339
79.19934541344014
78.30642232631367
78.65096184110563
79.32569188609781
82.11553269967062
83.79801024090848
87.31311319895136
88.22159983078656
87.40946172224692
86.09670221808481
84.21615805091741
80.10083173320206
77.55232063951355
73.02367419666074
74.81125971426637
81.69422922621324
81.47945772599624
79.74849530997935
75.94891819534638
73.58415740962907
75.73942540864604
75.76030624962691
75.30116864912024
73.14280027952347
72.53623978082096
73.22119834305109
72.86390587522673
72.856168785041
72.49956662046355
78.38804983109304
86.84600277493466
92.4916026132508
96.03739335835009
90.4848662087352
84.47139441429748
84.6371098533798
88.0935719159792
88.67171059289593
83.70947581637712
72.64869201483677
67.99617166205294
73.95757125522017
81.58417499033453
85.28141378764147
83.46948968106781
77.92477363896342
71.84239665584658
78.37783543960316
83.12116264644779
82.2494831127369
78.43428208303614
72.92140640990084
69.30311028227442
70.53316946918103
70.05700096941342
69.46376295260842
68.09160438724507
68.15229373953862
70.89683564612515
79.51816363598772
82.63818194700679
82.22755655518114
78.37894565160151
69.51778772736182
68.58489562815151
74.76271826466044
78.30973596348267
77.77778299410797
74.78517006498285
69.52082889153694
70.59815623979155
78.0909456477396
87.843396624978
92.74290961421617
91.07606832080855
83.76902355915401
78.4793869082808
81.33989254571364
85.95365703326064
91.63260330602989
94.3492817723568
94.69744133185381
93.33301002889817
91.51541663739556
88.1629163901374
88.39793071447026
88.31020933134373
88.99058338394042
89.9237113216988
91.10813278351786
88.57117039492462
83.94355478054835
80.31985341094735
78.03796066675555
80.25803892679589
82.82435278772562
83.64037409546857
84.67542802512412
81.37564428771638
81.28223409561778
81.67420805061658
81.88623401906727
81.95124609933346
80.04430558429682
81.525933153584
82.7994052091799
84.68948989171393
84.19530744790394
82.63628651367698
82.81071364163364
84.08221109859917
83.34140213687338
83.28540690698604
85.94509488576763
88.75104150191035
90.74977540550366
90.83005542158713
84.07243875324416
77.87393811554342
76.17588001711601
79.50500400076025
83.62436165351292
86.24587806101408
85.39114913959966
81.84675815465752
82.1994292425446
81.44988576910116
82.4331677036092
85.52255477442804
85.9571530958012
88.55011817635145
89.07510169055637
89.54957986925776
88.31818974642182
85.54137991449424
84.57061616960814
84.60269073335095
87.40397467820574
89.11747340485782
88.67123067358528
85.21180403854754
83.24237682524151
81.72372806589499
79.56674158739928
78.20804005359167
75.50527875901535
71.94571673654156
71.26667483736314
77.99174036375997
84.45861069242673
85.19645345473
82.64765022652384
75.78151414574174
71.67841778555454
79.38919490884871
85.8317208811432
85.28552485873075
83.85053970254778
76.42007637759518
70.41357082697321
70.03553107436062
71.15639719519164
73.62067133720566
79.45465268775988
82.67613215475873
84.79454104998165
85.83910016654026
86.26787958933646
87.45255811734211
87.79940931295158
87.68134941790964
85.46221584341201
82.77834916168067
81.31419113479281
86.92529861012851
89.66240700031734
91.63949387653751
89.52504359624189
81.40457224425276
76.98028122723366
73.4689467968989
73.53810961426218
78.38039832112483
80.98223271176155
81.07973556988117
80.57342396074962
78.08019975199561
79.46632300297459
82.84912845805317
83.79954990745239
83.71875250204452
83.7765033583285
80.7618314255648
79.68747814335123
78.02249086439853
79.68704957173523
83.2818359459076
85.15962540017745
87.05394176164975
88.69355569698878
89.59297607799357
88.90465434653477
86.62931876870167
84.3647273957228
83.82978935869664
82.90462551842782
82.63636839530064
82.10475412388847
82.99280197634602
85.24688506035547
86.31154353871665
85.07635992637047
81.42830029328665
79.16299393880203
79.28365142681193
80.68546920752709
82.89627832517243
84.08288937185029
82.8784228673343
81.11805126185068
77.88066657296889
76.52674210199501
78.35572873732163
79.35892052613029
79.34389050576706
80.94096473169591
81.67261985267046
83.74624831640071
84.7957112991824
86.17080951363872
86.79622426841009
88.80137149733822
92.34830299210601
92.35164598605294
93.2997349680007
91.12263719123096
88.61041613233525
87.15923278686951
88.23626240686828
89.25359296025846
90.66369160361272
89.76127955867116
88.9806951662
90.28636011127821
92.05870423028263
95.35168107594352
95.81274584700229
95.15963321725138
95.77043568985619
96.70442653495411
97.04667452062286
97.19943443492167
93.20408986628293
91.7374033581645
91.8169603880127
93.24327310235985
96.19964038523794
96.75950176828599
95.70284236340537
95.7225261995091
95.10604505487053
93.28598086455949
91.56258315724277
88.50059254913096
87.45209124012892
89.27259274235881
91.79837563600334
93.50046085080318
93.77529820370546
92.71956927554022
91.89879056593226
92.72432651831605
93.95599029845452
94.89404903228262
96.71669622288641
98.00082057779575
98.23047557204673
97.76060710941796
98.24544247030535
98.5383121586134
100.6654317467823
99.97900892753178
96.80896525549873
92.33843456631872
87.73572912416023
85.88133420984495
87.85705004502962
91.1500675811419
91.79587026887044
90.51412449875835
88.37689162666446
85.16343612069493
85.51590234728808
88.92807493687049
91.18546391502305
93.17599624837975
93.32305031563351
91.79535056620863
90.7227876396587
91.20620332723378
92.91357240046283
94.5478525976216
98.02251183796794
101.28126613885838
104.55015564147627
106.78063991694533
107.84903271818453
107.87688455831926
108.2047755929506
108.70419212578722
108.20886839655648
103.38156819022184
100.05121995998414
98.71026152852306
102.35245336211882
104.83814352961804
105.77622826467397
104.304843678802
104.09520898200934
106.56467487852879
106.93962615821653
105.90596376518214
102.79372193096354
101.63235812601812
100.84796525082457
101.86521287057417
103.40199548521393
102.02917560399256
98.51803341466876
95.08364574876929
91.38636438109671
91.9743019929118
94.88393974821615
96.45713198469059
99.33158644992804
101.452198031011
102.1848450439088
103.48575147796952
103.27489735521256
101.58685546100729
99.03438238631493
98.70131934854216
98.69453219726012
94.97404904030064
91.85279211038561
84.81916901870676
78.84001037856119
77.40233701635843
75.17755794545037
77.8094704660649
82.7745974462518
87.8881175801907
94.72265469360542
99.52289127923113
98.79049102219211
95.48205886610103
86.98141870309003
81.29502678356447
84.60490586626746
90.14254366651066
95.58101720297157
97.33504744044198
97.77321646003719
98.88232357249467
100.77374044101397
101.77298589158272
101.08775576659255
99.12013198254301
96.61760582290327
94.14881962267846
94.0791651918873
94.42338239464631
96.67344083927706
94.83231935126167
90.20532830469494
84.9429580854447
79.38758159544568
81.73128030167175
81.73315245378808
82.09545060689015
79.01149187298188
76.01642550450062
78.41485578150694
82.32437970940988
84.24200044424086
86.63223912743284
87.54341114715452
90.37667003157394
93.7630538719795
92.6112044964161
90.31917169665097
86.32072373801412
84.65563626352429
84.64210960727763
85.85184146272508
87.4570646920461
85.63583744208036
84.20351296082856
84.10797729420321
83.73782158987314
85.19631876872356
86.11071595094529
86.60116001211523
89.65811063967608
92.63663735730967
94.89674931167137
96.92751008694252
95.43447335290494
91.13215515664228
88.33737078255264
88.35061099084636
89.54590614985968
90.73180483020622
91.04574541922702
90.84604729307942
91.29705885730267
91.87464016209618
87.50054660318837
83.86971255566816
84.60034688948406
86.30992993523802
89.98554711529528
92.32873330527009
91.67587430505854
92.03794043215741
91.68405549165617
90.79943416025287
89.18561504144596
90.27149655825366
91.63869511815697
93.60163049053686
95.95579420060562
95.604690088097
95.53231699867814
93.69502368722569
92.3042874365704
91.96414496994923
92.26501739204942
94.64715550615286
97.00490080219224
98.06103003346772
99.9067912647212
100.64561694625338
102.10909823828511
103.99271259308188
105.44843454637498
107.01021581048302
107.5114292429499
107.27492459804928
106.89792781073956
105.95786292551738
105.72735304335576
106.14530773520806
105.68408099294304
104.88319993239004
104.42049431348731
104.45299613700097
105.48279573624083
106.88737604838056
107.41999769955568
107.44046452403379
106.60985806030347
106.47915720215484
106.90901141639331
109.15027777195212
111.53850716366527
112.89178437305763
114.20339159168842
113.91982851268757
113.3523310935142
112.98239162620679
112.047557997268
111.43472578171234
110.5055371668762
108.89218093620359
107.6036734211538
106.66391975082527
105.11379967001493
104.96065855013886
105.25218152518786
106.91248468719671
109.83574091522327
111.98530296510175
113.84748748061101
114.95431164436462
116.4585256775757
118.1851681752602
119.61375635836345
120.63575626250115
121.26315695282797
122.37499913580199
123.94625412889482
125.59034782473307
127.5491501964858
128.80600213717264
129.9463049112796
130.8576716211494
132.0675673093033
133.61226871661827
135.16006019868374
137.1796162257662
138.92834495839142
140.62078330963854
141.69347769168266
142.48558357385002
142.91481390438798
143.02188406795528
142.86008129274322
142.38200298138418
141.4081063690213
140.1920667638911
139.2939907686605
138.41586599276707
138.13475129274147
138.18704689707874
137.58779964500494
136.8557460219415
136.25234565609216
135.2585225682106
135.1538561729992
134.5214490714609
133.8186129113798
133.09508047210804
132.2090168447578
131.3645285243943
130.89699706904386
129.8918824528174
128.7460716513333
127.11301866121954
124.57339939797944
123.01900815244016
122.17404215878955
122.1746096099781
123.23125480673639
123.81750925804782
124.15482996131607
123.68224201900918
123.34985425003795
123.59671485348366
124.70787056502455
125.71358187413298
125.75750171130092
125.24740327986824
124.31998935286344
123.46385945136171
123.12685734938813
122.69409247990554
122.62011805856682
122.101201941602
121.44659698960142
121.5540097502174
121.71065594602743
122.30491315609602
123.21854839420847
123.63358068345653
123.97128789239072
124.14077332081895
123.94527245890103
123.51009108678474
122.72642001623721
121.5574467138809
121.26730327591551
120.91617155997963
120.5540765332562
119.9058226507474
118.52019090643857
117.82216036666833
117.51028332143562
118.25726149003474
119.23193481631989
120.36746470660313
121.13666229819579
121.15999511793711
120.3438519809247
119.47758080781978
118.28937770989815
116.90749426917132
116.01225201041183
114.55507884981775
114.33550429991067
115.37921414451178
118.65198150194267
122.18943012503944
124.8573695376958
127.55006181943273
130.2997961253963
131.71173961638124
133.20155354323694
134.479872516231
136.26919907027556
138.1747932980244
140.39770289248779
141.8325085182664
143.19231366562704
144.14410075850137
144.97410966993436
145.57868467093155
146.48942492113636
147.5190960281763
148.45115211242756
149.56332654882385
150.69731144346284
151.90227400476383
153.0027465753481
153.79309267238293
154.5361355266572
155.24687362695516
156.1167921956049
157.0517231600868
158.02327648592507
158.79459509452727
158.94445270548576
158.79571602770523
158.32633102550562
157.7522365588026
157.33736255880225
156.98273860275668
156.72009050398455
156.6898996408543
156.83818761735273
157.04495756866692
157.54589785621494
158.4124812306957
159.13120990802614
159.5847544426595
159.87811473121027
160.31513224581974
161.01673796478414
161.63667167070324
162.29247947084593
162.3454463576837
162.35412425668477
161.98625906032632
161.60149792975153
161.35659504320319
160.95217290375453
160.49357829491618
160.55570939153003
160.92946955448954
161.48756053869246
162.2005959384009
162.40898035059837
162.35771741926655
162.08062596483768
161.60608645061757
161.48360029843238
161.30674490861077
161.17183641265254
160.89522966392707
160.8942558800569
160.92425698584142
160.57527180134434
160.19437348322623
159.08044728606964
157.68553000702724
156.121220447474
154.68017111397842
153.32880517556015
151.8731249819796
150.11262658323912
148.71747280078958
147.60989222256018
146.03253352887748
144.0403128595468
141.68597897669753
138.80429725175628
136.78185576709166
135.21716659338358
134.32585925205137
133.09829090690462
132.3811535563554
131.69910128792299
133.01919015739836
135.43657364657463
137.54940921974782
139.19749059853675
139.55573508554107
138.0198534672003
136.7305271210573
135.14495165903978
132.96210275779924
129.9018928094372
126.30660171212293
122.01539500858532
120.07884190515013
119.59326918709267
119.63646077740289
119.52973179543804
118.95904113357895
118.0963475042469
117.67967175210346
117.19781850878852
116.20916377582581
115.25039002514062
114.65592265533574
115.84245460651603
117.34120686413273
116.11614554986559
114.57890530556419
111.0254230868497
109.70713723619335
110.82058948196763
111.76687544169856
112.64459951853938
111.8217152161201
111.15192012534773
112.0466054161343
113.7728281137279
114.46170362445832
114.0658060462064
112.81289047675578
111.00527404998
109.35967750195783
104.41761711966183
103.18013488030685
104.39911115958654
105.24460436306344
101.27194386925636
95.7120601987491
86.69297427885908
87.95517446126462
92.01397014799176
95.31846164465796
96.30433435963967
94.10047288644695
92.60912925358221
92.3634428006276
93.81582115362191
96.29137168535796
97.68656221086366
97.65243762696934
98.44557510177144
96.6870241921787
97.52464694267123
97.85195824695448
97.86177533997021
98.0497715157861
97.7981690512053
97.81475086633782
98.25408714990436
98.14526432249868
96.67803854434044
94.55782085897609
93.14867610534243
93.76751524917057
93.1014129665274
92.22379902780669
91.98664954681321
93.06403767243604
95.48419523750529
96.51899131876247
96.43111199168784
95.51370575146497
94.29676887128723
93.14269261642
91.02569108421339
89.81467332764859
91.30069583907638
94.25305764408637
99.13784842309128
102.51551485801565
104.98280275920251
105.11200721491322
102.78178835291426
101.12930071529999
101.18546005800967
102.40799348165692
103.584002212303
104.82471118279543
105.25385531049558
106.29744684325668
107.36625371343523
107.68013127710286
107.68090700259992
108.80159187037513
108.76335376546304
108.05193353115224
106.18882473424456
104.64252894712993
103.99776909869887
104.38071932256015
105.41354385979061
105.98183704203416
106.0853197324574
106.1821772214768
106.57122191898928
107.16268680824842
107.85296377329931
107.87270589270182
108.10522344167883
107.98871884810134
107.48321548563536
107.8721285848069
108.65035839348775
109.739868205036
110.57428462186182
109.04695717029787
107.13346607206934
106.1514920524831
107.8972977768804
109.77089210512015
109.92251695550569
108.13880643763771
104.5844600127312
103.38937703192344
102.58616384502527
102.07307657439709
101.35315577213413
99.02235073686523
99.51723892888371
99.25879368348228
99.51636277876084
98.49767617710087
98.28697381261266
98.6984278381312
99.49082149537145
101.30935985918875
102.2316005887337
103.03099057894617
104.92189639419841
107.33424466353867
110.9797790273324
111.31745769530521
106.27664173708715
101.12229267192151
90.37813137164845
84.31267489523628
86.13935528932399
89.19676628477367
93.13045266780726
95.16637181272044
96.30640152927822
97.98358354567438
101.57790964771834
103.88691048057144
103.01438556756082
100.26336506262662
96.49743071650154
94.21696411972448
93.3169746152004
93.69042716046575
95.30271577551298
96.8824542296652
98.03447749150246
98.73713792788755
98.20877204626106
98.32333793688542
99.02930490977434
99.9977935748106
101.048409864634
101.35771277307641
101.01163466846609
100.46967103205749
100.94629832343698
101.74147015633241
102.26411465417516
102.56170579182383
102.63074383952214
103.11058262610354
103.91532636718672
104.98843849499404
105.61951760236434
107.14343809808939
106.42221148246692
104.97359377970922
102.62289674454016
98.1068675057005
95.92902156874392
93.83640103409303
93.15007808300511
93.2057162750322
93.88627516052458
95.85424754654876
99.01701452244627
101.55088524792855
103.25392916555818
103.08490240338075
102.3780553065459
102.5217215219716
103.05976192337985
103.706494637224
103.00924254010933
102.28191341438509
102.18230788933523
101.52541890187017
102.03222398059158
102.06991963422662
100.73672716211536
101.88629502228004
102.71026226720316
102.65783931367832
101.85694854002925
100.3485770672067
99.86581720634265
100.52074365678799
102.55823552851726
103.09300982060012
102.30106305927488
102.27092168323753
102.53741296395265
103.49741554776195
104.75445840243054
105.4637984351779
104.77643783783077
103.51028984663155
101.16244921077777
98.93696413845282
96.98262928656219
95.62950860642682
96.55743827465544
96.99185603265113
97.26218224642814
96.94541879086762
95.83437430566595
91.0470069230923
90.9397735818357
91.45641030362887
92.97277122210906
93.63226506046566
94.2635388025787
93.89967691194671
92.85851951323889
92.034108136467
90.4162628006401
89.10877238811338
88.0125226032958
86.86699432056874
86.19399304639332
84.95363840429238
82.92520912155378
81.04763533318774
79.8669951962175
79.09611058766528
78.33886374652175
78.60544300461001
77.68622351459648
76.75663245062167
78.1494430897817
78.65488150466287
78.55832743884002
77.38456502910591
75.38205416019096
75.77606712399844
75.66583548806892
73.05528042469004
71.27659626761755
71.71991136047689
72.8710948588651
73.87976713698784
74.43075572908496
75.24520133576624
76.93089813131719
77.45720876721052
78.30861058862624
78.2415830927297
79.5054954432687
82.05786148110185
86.48688628279453
88.53583708517506
90.8255447631214
92.4127816302002
91.38340125844299
90.43782507994109
88.03307914217046
85.07973849263547
84.03024361537312
80.79888951579817
79.11322908706995
79.62661630548891
82.2311801032651
83.2271089831542
86.34779372039878
87.53017181845826
88.01564906319669
86.62082230325814
86.38841423476332
87.02913180276049
90.29603464427981
93.06319340841823
94.57885411222419
95.86348635600804
96.73934599655227
97.10831051341619
97.43026422205821
98.42514936995617
97.87056905628401
97.53273419052228
96.11743813854372
94.00970289619295
92.69171277173221
90.6807669852862
90.2097111810465
91.32548674574889
92.17098633255155
93.38425960123857
94.75046561265806
96.38026232978818
96.22646852533775
95.48765299789154
94.22247115927355
94.78879935043614
96.77066180921474
99.25726140399932
98.43921972631074
97.42518117986295
94.99762714203956
91.76870471607405
93.47810117463636
95.5605355975443
96.92199126316774
96.75762730092306
94.83530135246218
92.17025788021232
93.53645908938387
97.14317335343334
98.5602974977536
99.05405732019982
97.39093653306135
93.83564492013714
92.60098909978467
93.02740036618822
93.86489640349986
96.88895531572079
99.71051835523917
99.15379482357265
96.96331796170847
93.65561218829676
86.11149810781782
83.42975396073037
79.37848178420495
79.9435529058194
82.01228059141633
86.36848379572477
88.10105712452456
88.41001340444579
87.49024752520842
85.77519313557201
86.13476877654263
89.64369689287706
93.23462652808207
95.90329622268575
98.34245667707738
100.42205688271822
102.55710995127515
101.37159794317888
98.25950835945945
92.32129790464055
83.57989431150799
79.95588594249983
78.97759642721299
78.0964163426177
78.6826091616992
78.03360364197864
78.93265092468654
81.82276749982978
84.36700748286313
85.21108041781102
86.21428322233653
85.89667561892912
87.92669385248277
92.46400420780739
91.65930543123184
90.54815943930299
87.29584085932336
81.09563556119886
78.56463026374644
76.47829232430325
74.64857333708171
75.94592048479684
78.17130522162626
80.26979889212286
80.23583803357756
79.31198230745647
78.50965085756333
79.71415060482805
80.1401143229203
80.5281757880806
83.0366612035052
85.00154944261772
85.63048185230639
83.53017276520823
81.28845487111379
79.11794806094255
78.91242988954204
80.80388606816066
80.1449127097683
78.5464117243988
75.06966053204648
74.11640265062243
75.37009225017985
77.26489093999358
81.87217751070744
84.85837371364636
87.08674551415106
88.80320149961666
90.54785777762008
89.32364985083073
88.30432139227399
84.31790829399799
77.50904814415466
76.55479759356467
76.59167425120354
80.31433547609221
82.96631322668935
83.77379662967428
82.0495431257184
83.38503412299978
88.00093510271633
92.0014708821881
93.56183750126634
91.5641332118425
86.08741085462758
82.94018266209909
81.57871912895322
83.08945376760127
85.32524777926666
88.49829431836676
90.78219805059875
87.38309313778478
84.8013663902668
78.49064003403751
77.19887186040268
80.62763599577089
84.06747096189204
89.15666463399357
89.43109766058751
86.74046128486901
84.2603977104742
82.42760571696125
85.85964300180176
89.94568672020856
89.97915710495887
85.86761870319994
80.58167560223953
75.66289172774471
77.91498961807649
81.6015141597614
82.76946468259722
83.54950082491283
79.27452000237436
74.94436855651188
74.32280331471088
79.59282705028002
83.48647445868531
84.92041892476745
82.57306654810598
80.22186684872254
79.43329461177703
85.60849455917091
88.72069078959038
89.1722849204789
90.49392216201603
88.3555642743212
85.66509667537306
82.43923483658091
81.41447979853668
83.13857262034614
86.05280222740079
89.94157239678192
90.66476278784874
91.84778174871393
94.10410565364927
90.82200631616124
86.66732965486634
80.23444808514847
75.00430356587222
75.98211194935756
80.11026023830043
85.35538054562802
88.02967829856821
87.021192736355
84.35684638592554
81.41509846790844
81.75430690616028
82.31126043704667
82.48855723649407
82.80112260106281
83.02529012929651
81.8992357394143
82.00906784017415
82.565234708021
83.01516397418197
83.56128085266839
84.14310083232577
83.86147528558692
85.7113548848801
88.27752749897677
89.09264177507315
89.20964617254123
87.11803153968948
84.63185588719735
84.34312094944407
84.73842741220918
87.09479651327709
88.01195164206673
88.91298288553332
87.74719904992753
85.55354988197054
84.58420021076259
84.43577825472536
83.48021301067158
82.8416400690307
81.98467472284513
83.89567415265581
86.77130529792413
86.16613395072697
83.96196946674095
78.18845370873761
74.30220970586107
73.45306732709116
75.03819779182858
78.95409048035238
80.51198987248429
81.6711311707435
80.06763788553437
79.10688859860493
80.4514727864912
82.03639744071882
82.85529509812929
84.8535759246396
85.0887174501341
87.62682008473183
91.6869398963766
94.25067793848065
91.65595587953906
87.10721282474974
78.56325576685879
72.45775538072797
76.13344848567088
81.09080309928632
84.2927939715579
87.89408330451771
89.69229195639326
92.69101707724052
95.05505021888472
93.79681537234883
88.43501572797635
83.5964549480282
78.60230663132837
81.71441096413567
86.76167675404315
90.62510102119532
93.34914963767751
93.06567748414393
89.7633662696276
87.13600564973939
86.61535702263076
88.00774352290036
89.744227856389
88.05610746144386
85.16048565707437
80.58227838511563
77.77624115304
76.2886617728755
73.56073364728331
78.28019079126126
82.0673211961205
86.10049678307013
87.76302723664047
87.98287341641115
88.69628756552858
89.8775852183953
91.35699172233001
91.54708948229501
91.43451555098024
90.70448434376831
90.16734785456774
91.17827793311042
91.90899621636434
92.33570870557412
93.51912844789776
94.62909521564404
96.64490557166467
99.01913235134245
100.29774922514521
100.77467874939897
100.14203497611979
99.90848810784065
100.36741696013563
99.04295698897785
96.4452593222116
90.04287071415654
84.09793833850559
79.39664236945224
82.29639564063336
82.9963309961927
82.03063779925134
77.75838334142324
73.67791443438051
72.28099917972581
74.38064692248521
76.90054008307617
80.65559953716334
84.55818824952823
86.02163111146109
88.90718737023764
89.11717247570222
90.76119804005741
91.52359576946203
89.72400302052299
86.59159831026746
83.8855765181088
82.38441468552796
83.13545759405775
82.74060554256565
83.26554057880467
86.03910316128007
87.48740173808562
88.91167107325874
90.31636978364453
91.25677919740224
92.20789923619029
92.27531246879593
92.05621804579711
93.29237076528159
93.28782700583514
92.29014841012741
90.5557664966153
86.50841259432235
84.86373396204634
85.02089834226429
85.15762067624381
84.22683243328356
81.90252531193656
78.8400508373942
75.79530530576541
76.3226854858546
76.60867259550798
76.2869765223857
76.64448314029204
75.52503593512796
76.59342160966713
80.15929667763083
82.7366526357565
85.49025377527684
84.16665502340382
81.0713451657672
77.90583287136143
77.4249810276205
79.00067016478596
80.72805224523044
83.69984159952097
85.59468768640873
88.65785080582798
90.89197538024911
91.27338477818273
92.59377036916608
94.81783999519986
94.38136704173021
89.22885054799339
82.62447186933288
73.33505592844695
68.4516035460727
69.82883698076813
75.58912123227687
79.74573337334441
81.05597348005924
83.87078779236803
83.5135644466404
84.94051842756468
86.1108859158697
84.64662735724826
83.77517136907096
84.66089374773087
83.7330665334251
83.9972829011999
85.02563489935923
84.40972219777304
84.42500952968892
83.67363612959633
82.52612618433227
85.29420377702989
90.49680329725305
93.74918978196415
94.92899161030948
96.13687151340032
94.66075612356744
94.44176196626599
92.86146541165553
87.67581100669145
87.16423536647088
86.60786888681896
89.82527211534999
95.73683022293817
96.0717671118508
93.98399497819854
89.257505701164
82.78360991304729
81.79006963192339
81.75436503492308
84.24086183896354
85.8790914689786
86.41862570031996
87.26148887127592
88.33569616195503
92.99425867044863
93.47077135185242
93.17037449277653
90.60339066635687
88.54780054858443
89.88525561261484
89.90236104800192
92.01437088756451
93.08824559764423
93.39579431300908
90.84534896993245
89.63148919462914
89.46832983007344
88.52347795991913
89.32046274356081
88.81080569553097
85.77933812060523
84.97122154314152
81.2654296695033
78.06647135391964
81.87744425933792
82.71841413552173
82.60417549037416
81.32952620245433
79.85760083170044
80.08350225075043
80.60509298347752
81.83804896679577
83.55936520992064
84.37965320141602
86.2584228622183
86.72233840297167
86.7842998976897
88.62754240240726
86.8321407783846
85.98337844685652
85.33247880337203
84.65027086399604
87.54834981604169
91.21657813975652
91.95372028975369
91.42222772467575
88.71651193344252
85.66721909544137
86.22579248116432
88.41269738153402
90.235791509437
92.36029117936553
95.10534344998808
95.97530251031009
94.06206916305304
91.45306203233675
87.90714369098286
88.03505536286664
89.55636088743613
89.03031478600028
87.73803585241731
86.6123664940566
87.30314210950768
87.03864352471321
88.50861512813981
90.1482815292359
91.46904075101904
95.06328039115279
96.89599151636692
96.73925373485706
96.97202919847247
94.95493890885335
91.86145436020568
90.87497109856086
91.0849535751301
92.48537950149442
91.80848372967363
87.08582919444284
80.90514118177606
79.53896559038758
79.47901270197981
81.14368100062538
80.07982661293651
79.75931059132022
80.32529371689341
85.10130416664055
89.57286376300809
92.7935078453535
95.96926123550787
100.50945295677282
104.36228943993001
104.2744057232339
99.40637016772216
89.37453716851246
78.47991903880575
77.03152458088051
76.67080681202071
81.04059573065605
85.2302574448034
88.5483143221693
90.41892924062608
90.73878186151863
91.8642657289633
92.59983144180859
93.40702582340803
95.64933222869037
97.22425405492396
96.23888694292877
93.84508707627703
88.77012134071471
82.4104975223103
81.74837980676318
82.14434828304056
84.18642578710293
86.86047151536471
89.04450038682279
92.13704232119733
94.0108301975178
95.29287702422845
95.5378378672853
94.5622638019408
95.26870951045284
97.89117041474384
100.17278410401512
100.26866498335815
98.67152569282125
95.78185929619612
94.16296619625574
95.1177064946562
97.7292486134192
100.78239736257903
104.29444528259572
107.42425033053745
110.07659304145876
112.02238551430776
113.03831931537198
112.78320051074354
111.81398443494159
109.97360242026589
107.88443590204359
106.67653005560952
107.3955560152436
107.79613490191302
108.61083677331087
109.41894094933167
109.80392946447479
111.54854588153884
114.30120808521563
113.95734762787366
110.21001093728246
103.96472935407886
96.44576385395185
93.99230384843895
94.7700810495951
96.05428448942463
100.26647432944145
103.7143488388455
107.34888943521966
109.4991920240367
109.45206987534586
108.67278005070503
106.72987048049784
105.90832250035267
106.82115928404106
107.35587565197328
107.9056557381412
106.5067671939615
104.34314888765175
102.86403138216214
97.65248774864267
97.63857309550521
98.45867212718768
98.98768941990876
100.57136635875715
97.97975297002175
96.68507728998794
97.89256104805229
102.96406765008126
108.39373617457724
107.59698610500865
102.84779353576722
96.67208113903865
91.67140519055089
94.971656349875
98.2390532699037
103.42300593914851
104.6068341123696
99.54078585486428
95.02214264317786
90.64076654703804
91.9053183590227
98.12986072755488
101.35823665192275
104.59408210635108
106.0551953851077
106.35733140969775
106.47228817253573
104.13511857059201
104.07760229650746
106.22109753369335
106.20182207172226
105.70733665592569
100.88946031678667
96.34501797888844
95.36594139300547
97.50612849776424
100.05333011699211
98.35865181074206
98.73013630371322
96.91836404791239
93.53936124436387
94.49743463737475
96.14203548959595
97.5363957432114
98.44216866142081
98.87659681025349
100.23574716123976
101.41649071588235
99.17933025726914
95.43875845894004
93.76978307013034
94.28032777099055
97.3382747502709
98.13757998463045
97.90500303573702
98.07268075603064
97.95949779020975
100.14721717247575
99.20839404913056
98.9130270624566
97.79939635893732
96.10042728217532
95.75435175083004
96.74291409740198
98.59043005164324
100.62490798196757
101.66551986141194
101.41116636021565
100.63432223869219
98.71091911100837
96.70089923861359
95.73561876708004
97.69068381901307
100.64308407062175
102.54480785268446
108.6160041604493
107.92436863416566
106.92698961969732
108.23993193382815
102.79534817298591
103.56612947804467
102.61794787173775
101.67818644393606
101.20943047572727
102.42596190027325
105.24749413457523
107.08692042664788
107.35120255653581
105.06260761871928
100.53547886392484
99.79760215754825
100.84775063713023
102.5453367465405
102.90125578445853
101.94457434455337
102.13341838974908
102.84119212109282
103.4268238479339
103.02546441158967
101.56770042980907
101.01036556251508
101.13187907344644
102.88260466758348
105.48878974200365
108.22271779860965
110.05796619902492
110.49305270667891
109.94807318222794
110.32148699646298
110.4022722956816
109.79779550263382
109.93593476943872
109.48024420446063
110.00148125930703
110.69709348820659
107.71150055267805
106.11872606215614
105.60985086180204
105.25593343877266
106.36804221890745
104.53491128030618
100.15834991840319
98.83618508475506
97.3027286538448
98.01456274607379
98.82298242773749
97.97065591380755
98.62740534110783
101.27992017382836
99.92458133098894
96.80211208705106
92.61875555037267
85.8678794785883
88.61103788071392
94.38294024939995
98.06133086872113
98.8534809078932
96.77195396037824
93.5329697170933
94.45234372258261
98.2075457542192
99.62041296604153
97.7172314047823
91.58709531717848
86.69998441235016
85.60758104986607
87.43062493965941
89.41124302693888
91.7396114803461
92.02834704579394
90.65428831650992
89.82726659793187
88.21914020408684
89.70249993780712
91.89364654866962
97.5984792179916
97.64703212447061
94.80041223623083
89.38426138931726
83.48509000526728
79.88622829483965
82.75324554833627
90.65627546912302
94.0870233870117
98.28739020620674
98.90319772928184
101.69741122169715
105.73451615271574
103.18170116149868
97.3880979400546
89.07325538044971
81.34504420629332
83.52778670993884
86.41386393586266
90.40978730763051
95.11123019028231
98.26644966405068
100.36800026070001
100.04814696857841
97.82637461529237
94.48023801069324
92.17043463919015
92.7573728281994
95.4118198844589
100.4748699401386
105.27680205015214
100.99093118850239
95.83167831687706
83.65805263205542
72.58191955710939
74.70645931253001
79.08835542992443
86.10994225917368
92.94078682601936
98.69259842074102
98.3620345734288
97.25124209662106
96.73479897240833
96.59320112312359
97.11445388867367
96.60152412784917
97.00233893089724
98.96093248838442
100.22331561876564
101.83237561880081
99.87304232998345
98.22789589702239
98.26401748476945
98.0954915142724
97.08744800776934
95.83075372913659
92.02554012644113
88.01533685424907
85.98500889768212
87.4624622420106
91.39856647813163
93.20438657895215
94.30844954640867
96.15104907129528
98.8509662191246
101.00880224389186
101.38106321419562
101.02817222627232
100.08682964581864
97.60073165353295
94.45750171988674
90.13422977054985
88.11905467930045
90.6010296030086
92.54376580276067
94.02136374929057
95.58011367193308
98.58316658585156
100.87876450463078
101.12307693431802
100.95436649894664
96.55424862236237
93.32270013421098
90.5652543048627
89.7818656238344
90.36411490887726
91.39230336705144
92.74442476981359
91.53874128549982
90.8919882218941
88.53737463694534
86.01235737100563
86.10739169986024
87.25675761890594
88.47542953558461
88.53208738152794
88.1142246279917
88.99852177082994
91.81352573347586
96.71610811580574
98.53120240600526
97.24291151001172
95.04177753557268
94.82829265751576
95.88799509459417
95.69869170323851
92.56183675078074
87.91402114125536
85.67132212578848
87.8627912503233
91.89957433680037
95.38220738016987
96.50565158447932
95.25934604666666
94.23911482334695
95.71217477633354
101.00888902303024
105.57131498633247
107.54092434117767
106.6897090764318
103.63062726232116
100.5523080824052
100.1443270994156
101.94466045665003
106.05504769959171
107.91366007245743
104.84695092880641
100.07409131082288
94.62099730041751
95.14862589089415
97.48662486313873
93.2350541330531
87.49435524722189
80.70380211425075
81.45990711731379
83.88902181654926
87.2622965454411
86.43257741460414
81.86078277779981
77.6260683912082
76.94527808051224
78.3842098907102
81.17947848808683
85.51119279755562
85.25399226905438
86.34996268578786
86.9843710017742
88.86584163942726
92.7821006546704
97.92642001726226
100.94106078785745
96.73598685359788
92.320896472193
86.21583489734604
81.73366148665508
84.79159173638791
87.86273323682863
90.97057130662698
93.9797713624938
93.06290101046939
91.18403763105022
91.69109138321055
87.44094214230027
87.16292907086202
83.37239386799769
76.6619486725905
80.77584686418457
87.53318257323865
92.29867077747532
94.97213715797723
94.6967309322096
93.19190251661148
93.42915677029777
89.24841825490392
86.5513771220221
82.02572516113466
77.01920533275617
78.6740198010914
84.02828127874446
89.56084195093626
90.48231487573977
90.61961283693815
89.92053363760408
90.65747368696586
91.26464125078893
89.47000547616211
87.2222792266095
85.33454845147418
86.56199145103874
85.94752836987094
85.83976737060249
81.199632371185
77.51059248587995
76.69519960924468
82.86812920135587
86.53786253109914
88.9228113071471
85.39510613358324
80.02391389836762
79.75185579985774
83.36021798659462
87.3051115093639
91.83634371030539
90.06763964151155
88.2442758516331
84.86910490342309
84.60626245947857
86.12373748626706
85.1490232906603
83.99641168501671
79.99285665489442
79.74538973249928
77.73318056217153
78.80568600166002
78.38720600135167
81.22758378567865
86.55239104460102
90.21987870517115
91.7561776479236
90.36161272926482
90.20699400188671
92.61334867595475
92.27970346103551
89.83450530737817
84.65539438023944
76.00330201160303
74.39720582713876
77.63072629186921
84.85763062459077
88.85609543183061
92.99318846783079
92.66471047704572
89.4493831472287
86.31830759376885
86.78160092680027
87.1318094071535
87.36470055546276
86.28383437083913
86.8260607588869
85.07427615663056
85.95733307385376
86.9824058256868
86.25456913990276
87.71525367931622
85.09754772025168
81.40181185362731
77.02067493401721
74.32076720027676
74.87658892149892
80.06908319398869
82.18773631485872
81.57473732968302
82.63345805148315
83.78517068867544
86.80030858945752
90.68888809670807
91.87848964762458
93.23550966680669
91.5119238328579
87.03004261064754
80.68834607829521
75.94494987074198
78.49011480379357
82.79046266322587
84.47960872976867
83.39990446970816
80.47845293086374
80.30519320812003
84.67935030318839
86.14899883447843
87.293832944496
86.2034404682815
85.55050292832911
88.17971847072734
87.6486282338613
85.13619125532307
83.3320078872738
84.75699724905449
88.10010787490306
89.75314000232945
88.80024818717239
88.89570852206046
89.25248148813712
93.30567035954358
94.39935868874039
90.24127362107328
85.34925906558554
75.91105663847311
71.39453027374886
72.05240308505638
76.88041831440319
80.24254526021203
78.66442671618645
77.7693225028232
70.16008522490031
70.59578224810247
71.63674306141364
77.60434528284651
77.34689963650763
76.91262342531252
74.05308254502924
70.63968653835448
74.3405555431903
76.50664883437129
75.32285106030653
71.47879804490387
65.72352648222054
68.64529443608666
70.88442642008613
73.56595456369564
75.59666867202665
79.29241827823678
79.84672610566352
80.42567301548551
81.26147390183411
79.34796953011912
80.32863490546139
79.97664966014926
80.88546269233672
81.58959098161303
83.7464600177387
87.62097522884201
86.6701773911736
87.9030004240341
85.12543322862464
79.30717444270134
80.05203044626596
84.70181292357385
89.56639745730216
94.8231880367605
97.66708675481708
97.51467407878032
95.61550947263454
91.74629136690366
90.0905934078251
91.48512233495
89.33908339632347
85.06260878113306
79.9434791850176
73.59608945442876
73.68924372468574
76.75350811342378
81.67656251285526
84.0092429501806
86.324637797996
87.65902446362864
88.19496142596614
88.10836064105472
85.51094092407743
78.56181756354343
73.3093206194919
75.59435226372902
79.46991511846282
81.60967386320493
79.977189451508
78.00545881504564
78.7599712342293
82.50664871128473
85.96777625548575
86.39311665227497
86.33430643023836
84.7462095446061
83.6910126433568
85.30557309967415
85.13647091892908
83.91302488963252
81.92401090753627
80.39990778641308
82.59668878291822
87.58405055021612
90.05537159773074
92.56771444051438
95.46577891725133
88.6032114760504
84.3232701082313
77.33148152673722
75.04132465567064
81.14619911862685
82.7698985036496
83.32109677279848
84.47047080063669
82.57740025525592
84.53619541293308
85.78649398376487
85.1865963337791
87.69628119148736
87.88995836953697
90.2906875454256
91.98221935867902
89.82940531381561
87.58119837459421
86.88350392871132
87.16159138113444
85.19912755934665
82.50637917202604
74.71381548117819
76.69827796658048
84.95444915523993
87.33294436880932
86.71785112548253
82.84184727526889
75.06396904038957
73.63949514820249
72.34078416667103
73.76052584724312
78.4897427071168
83.10689362110608
86.53423805612077
88.98035454791057
87.63797577624693
85.92297044927051
85.71545694107962
86.12815166323725
85.77208668310413
83.78338100341944
82.55617202726236
79.6840319299832
81.78898030991958
83.4423903266692
84.74248638185308
83.65440818432292
82.08669266412615
79.58579934120681
79.50982868241009
82.7881036815401
88.06855615077168
86.45005510849252
84.12936953746781
80.94746176538408
75.59130344915303
75.39509652746176
78.53054214644915
78.94208078591434
81.55118644438735
81.91715213729802
80.55893314238547
83.39571683967661
86.2575894312575
83.46605516777637
81.919619212617
77.90682593894833
79.17269833932367
85.22168928581752
86.71390516515373
87.66592498551228
84.43211121030713
78.70552178158191
77.54919226455738
80.16503378506687
81.62114084384682
85.33515182162667
85.76958807421526
87.60503333496798
91.70750773544975
88.21031230668231
86.07606631781383
81.6712554966109
77.65873173256051
80.85709109949916
82.61074793812354
84.66875215565685
84.23193722381986
81.94808244990962
81.85461055363841
83.37369849287525
84.36666608471046
86.80871354646482
87.3703363517578
84.73155285976624
82.17599607787835
81.00921146588257
83.85389846212979
86.67750577387179
83.71347475137226
78.5990659621018
72.6573452597415
76.01242149958114
76.39031316293594
78.68156736813859
81.91445826846638
80.93347114632328
84.36794128191274
85.90132404792821
86.22483697666287
84.80157397520063
83.01929904116682
80.31940171173355
83.10079291991141
87.33496602983827
88.0445245126875
87.97749256393061
86.04197178691423
85.08440075937311
88.45396581936467
93.03015447323077
91.70124760860332
87.9733888669971
81.67320326664131
77.2031348787493
76.20810555355641
83.94234113249324
88.03474463411158
85.7975877606022
82.51249903593198
77.08142370100342
79.00246278266971
81.6939167980934
80.79826901255063
79.67322579227445
80.78328225260171
82.26225699141838
82.59317204726045
84.0590696629168
87.10920230418495
87.90133134538638
86.85039759550732
82.79127066689887
82.98682093445117
88.4050027089767
90.92021691886467
88.63161413994175
83.32212376199843
75.96852440357503
76.6249035202588
85.59492796990969
90.44509775491022
90.84813845410983
85.78190409986179
76.60415760349773
73.62767408511698
74.76934104075184
78.56166777090576
79.21648378905074
80.7130659746217
85.62071605153602
88.47572512789408
89.14343140164007
90.15496189259513
87.95188466830209
88.70324810850997
89.56927354367848
89.80245227560238
89.03203085839296
90.21369892175953
90.47595690528541
92.33917313084874
92.79080069601589
93.82211425651856
95.73219607239491
96.00362017318501
94.55283679732564
90.77218002653852
88.25380498614831
89.37604792783962
89.65675783418125
88.62751063289498
86.6248445381291
87.89144254278736
91.19480133612232
93.38212787248412
90.96911958688354
84.7543255643761
78.72837831762502
77.67502076368959
81.75252186597358
88.19187161234852
91.08882971056481
87.67770114372682
83.8371948685515
78.79616941998009
77.80889438366721
78.87920361772352
80.26727395534243
83.63139384758574
86.49056815873192
86.29798876397356
87.85202829411675
90.03373849102228
92.00881844816617
91.43720761501329
89.11305562234602
83.3972380913505
80.123770065874
82.61516551812137
84.83880107594612
86.09618536110989
86.67788503555795
83.83407063288958
82.42679409734531
84.63338766167102
83.31121837720514
83.94441893124403
84.88995774560303
82.0556955240776
80.96760208365924
79.2535824096203
81.2591272867938
83.5137457846601
85.57708060843154
83.4477293070215
77.8169971164677
78.1112471574654
79.06574777885729
81.64559490094028
85.51910292035076
83.59494919689324
81.4740065670214
82.66675648166752
82.95837643446768
83.44533933431953
82.56271537438388
81.7163722886338
85.62433088041165
87.00602943312008
84.79328987163885
79.72235169002096
72.28026444384358
72.10106306591537
75.74156756442903
81.61907294255428
86.3878021096171
86.61601065881169
83.72736848660625
80.46486128508917
75.07004582178897
76.15671153602648
77.18318121954422
80.94579227994974
84.12273910259181
81.38359178355913
74.14075608345009
69.64429329586602
66.50515083190325
71.41927065693
77.98076532879787
78.82106170627358
77.87607149042636
74.9653352908306
73.1383930251333
78.84515816369591
83.54652970306894
83.36938024677492
82.00188739075477
78.86107187736191
78.65219399522654
81.80899274813042
83.82526259806924
86.7131456482994
88.63287082589247
88.59989763008065
85.96572991938665
80.18295997421617
77.14116819807542
77.85365295703025
84.182933305046
83.87047066227875
81.38191942062753
78.06573220185305
74.47562505239588
81.14089356675774
84.44674146565748
83.27796625515941
79.67850273821225
74.57797113879899
73.97834962416687
80.75256349543314
83.63645787864937
84.38103367819159
83.05698650620397
75.80404712060395
73.19690550941557
73.37657305416025
76.24724197197231
81.19454048651671
83.08100963498278
82.77076184464124
80.25581405464446
78.0769246235991
78.92695994698445
81.3390777536379
82.46391676242742
81.874216721177
82.81446675243222
85.56425284695946
89.21138905704588
92.32615413373289
88.91940197393451
85.08954196756257
81.38106938666971
77.87955954972861
76.89463505876367
76.2364026739521
72.79706785529984
71.28279495176955
74.36840451264194
74.98836792989202
76.36978987246981
78.83082072199333
76.55319932027176
76.50378233841329
75.82097605072545
75.71830367248434
77.38745957571915
79.21610307060894
83.10117095384729
85.31951798971745
86.44934921203382
84.71594888111596
82.6951907432933
77.01068256084046
74.95227781947926
74.65437773490552
76.3082105526623
77.08317499613301
78.86895639065614
81.63455568038975
83.6853384750691
83.678485376918
81.9697002079732
82.55441370981865
84.43085209128621
86.11414719819668
87.70187957701086
86.58848346701183
85.66865689814331
85.17035433429116
87.36454014052896
86.04451472549715
83.535187478937
79.48141046778171
72.69843367200576
76.12989000965632
81.9641734509876
83.33386312693045
84.33376194523905
84.64763053001221
78.9710937535212
78.57743119151723
79.037489567319
79.87705855830977
83.35420097956968
83.3430826440851
78.96608141570124
73.84743548018872
71.68578373133712
72.12674255354341
73.76000827771821
74.7680241798319
72.45036528926221
72.83313833920363
74.63452574925577
77.67859846975456
77.24922797730407
75.21453780191193
69.87508201380211
69.98967233744511
74.87869566608607
78.05197895472672
77.84448689086497
78.4314429244001
77.13041708114218
77.0250210446942
78.94167381162416
76.41471665508763
75.69700089311644
76.48136770291181
79.42737254451389
83.93353372508656
89.08376688087934
92.55039531178235
92.50646193970759
88.13761089628464
81.74193617350338
78.59316522107456
78.5643871432012
77.54989647984992
76.45879791676997
72.50213523581954
72.7840276567561
72.63474279656083
72.15992232389175
71.87992200305422
73.99006959747706
78.04238428343518
77.34375446193995
77.32981004438831
75.97968903459463
77.25143128904332
84.79777180587817
90.93832530854435
97.52686332659437
102.28411351950473
102.44798552776525
97.8229392453141
92.55122160576971
85.25181089190829
83.13593506945585
85.11509136876086
87.39509949223533
90.25552200599827
90.89269166959195
91.98856052784664
94.29287477512321
96.98103734055849
98.17461442522836
98.10496849658576
97.32524736518222
96.42732033733023
97.70173637518478
98.0914115681693
96.75602562713698
93.70366001474305
88.22024302077995
84.4916693240777
84.86585151314459
87.49955590818068
88.26245557063054
90.65339084397036
92.34964565965606
94.20179628409007
96.95111525682779
97.14448396668342
97.7535500336116
97.33563311974405
96.35148461166041
95.57312550736121
95.08279954255141
96.3629698369074
95.54775255760292
95.45962093185612
93.9629402256062
92.56711438575357
94.19806689717775
96.46306904563046
98.196611978843
98.41328481791805
98.47506724934972
99.05542313367015
100.079762967165
100.79538734304612
99.98275669368046
99.08926583021719
98.7721440571679
99.68966835383814
101.15284304247542
102.8006987999253
102.80531343793831
101.06622641037599
99.18568498957897
96.18536372380116
95.11664628179068
95.93526548706599
96.92857292195674
97.42625480417071
99.34771005716237
101.28112794002014
101.75844968270964
104.25857917154036
104.26372704156118
102.2953705483472
104.51527473478187
103.61540798597785
99.16695474275745
95.08091868260776
96.10611880454981
95.7512323274101
100.37088864969893
98.81242188030608
100.01152924592283
97.86524291746828
98.97345197970708
99.41408210823005
99.47883230943432
101.5398212906665
102.70463850597021
103.32711345978724
104.02442342357705
104.41670846895282
98.13981492292301
101.32450144500073
106.0061433727944
109.69015847218758
108.05273168533219
103.51761708383748
98.00126991946166
88.97108868971215
80.64670433727142
70.24596733152656
68.44824189380243
74.16742966374703
90.71801991620146
90.27828570573925
87.54705042963153
91.61362191076694
97.52976556030198
106.04478750366094
104.91765732633523
105.38944733186915
104.5694902901145
103.37595723942944
104.35052275777099
106.83613643900914
104.24911656041058
107.2964408333816
105.71341923489193
99.77881398139533
104.04022914735081
102.24205434865766
98.56041810293738
110.0613919660082
103.84410737338551
103.49505705992502
98.21883697331491
92.43619048592011
81.10013798797729
81.30765176937695
80.77073564030279
73.64077352948003
82.82460030731325
94.43095155418126
105.06623853099987
111.39863691428884
113.34542299269332
108.27880336057727
110.05681818386748
115.32064044640262
108.99164420623107
110.03206481982893
103.70625432692965
90.15477848661799
94.09027843021309
95.85602219678839
96.10119776599399
99.0651093857194
95.82943896450148
91.89868520552649
84.40321226342074
82.635674827681
66.62255919435987
71.9915091680554
72.5077826408737
84.78548987886106
94.7518800021139
88.16794493508286
93.62707746890014
93.50280146242162
94.06978112733057
97.9517197514387
91.89248200579394
91.0774079313523
93.80060886218094
98.15806013845891
111.45965235518196
122.59933428543262
121.93532756202856
120.12065350890089
114.7654566675989
103.63806017722867
99.54559647680759
101.87341977547734
90.31254593785398
96.63018237661363
92.73100569875606
92.94696519868488
104.83684035162548
104.76302684259227
105.78561181441641
104.28719200447634
97.79820561842922
95.47847188205273
91.83483203758097
88.68992601706923
96.18392230403674
98.02176384300506
102.38904655393794
99.07242676234983
96.77850176199976
91.05576974568396
90.93476554169624
94.06278041064942
100.3559264539936
102.64424435827692
115.05245881318326
115.19066617038808
114.81609962792248
113.66113980480571
101.9458573037512
113.97479620992564
116.26973594516281
109.1598552216401
108.62571321125475
99.4931487802212
99.06070726951064
104.62970850796198
113.57397838097071
114.54852766668182
114.9720917034558
111.61550278001202
99.7654439530222
101.63365332373307
109.44204571146179
109.71879554593562
108.0279169022864
108.9643775316694
101.85535840101691
102.19508635669227
101.4768932373692
101.44694001346832
100.6383618135675
102.68768986914891
100.60336052850549
101.13415292665718
98.42209837580982
95.8403452202405
97.33513240686806
96.71582967117183
97.90755862218873
99.1015644889586
102.58387380754067
105.83990774827258
104.33341804801996
100.52715551084417
95.2411356560931
89.78368104257255
97.9885351180555
104.67577905566473
105.27871974015578
108.31492124919785
100.52217068394049
93.59240030190858
107.51681543823578
125.82682327985727
124.15308558414485
124.71488691052704
105.78214953232067
98.2046249223753
116.96155485876731
125.02591472227289
122.87634430836218
112.50209484785594
111.90972627960566
120.95419635912668
122.52787809312115
125.6276504168167
117.69001750062066
108.5612816590355
109.08793085653764
107.43646969623046
101.09000979170783
98.37456495250935
97.7050269845586
98.55215187829813
108.14236289023212
105.73127442792375
105.6466680966225
110.28147648243825
112.695702194312
117.0918358158359
120.94115568946614
114.54878321974087
119.74011696186376
110.85415783785093
104.14421219983825
93.83452811917836
98.15440724974815
103.16019176728122
101.82123784404331
104.89517396968019
109.69826850475671
120.16788115109397
119.34151479501381
117.57819316189442
118.12260710844863
107.5837771889877
110.56997181317054
104.35204679697931
100.43394891493625
98.75624007446336
84.78162432046695
88.81338263607978
79.2818717915734
94.55062663963639
98.35497531206019
101.03325745593094
108.08234785091649
105.41976085144502
107.01795192698312
96.13949261224052
92.43548061336324
94.7893340697672
94.81479496260332
102.36992676806317
99.24773643774611
98.76450911558555
96.88523707866666
96.39108519602524
98.16564366069393
89.86107564773874
94.95213383218983
91.68552262023495
92.16093916540073
90.79634146050716
88.41669207161162
91.90132727228807
96.97113605499304
100.84348750333311
100.19994270705052
99.63284153678012
98.48981871945142
99.45221752079041
99.78978994982093
98.82271589277956
96.42411059258042
97.06044183919165
96.13433895150756
97.17788884734114
104.4204370295211
101.47842896506218
101.27213007088902
95.74038729417349
109.07923203533193
112.88215815163252
113.74882261351746
110.94737999062878
109.43400008052869
107.84369704633171
108.83795975588043
102.54040523401362
103.89406348599782
98.87065773082635
91.88132584908314
94.3492769248624
96.55026902115141
108.57216343294947
106.91720361288228
107.36755263371258
106.65033427873973
99.04764440440427
98.21560538039229
96.27784116850984
98.09448502026484
97.95451936608163
98.99611226909047
102.29680963536947
105.71295073563172
105.87245320206246
105.42990406679951
102.9315505276507
100.97925798840417
101.97353888712327
102.59144354821314
99.87790788280638
97.53492793640447
95.04233392661935
96.28112715234698
98.68042795132148
102.53029926290061
99.75467877695809
98.90425826928453
98.37765367005949
97.98074323352661
99.30898908901743
99.18434670683592
97.56849671594581
95.01072869806148
93.00651374675535
93.26913810447432
94.60937364187396
95.64135792774728
96.60245744604129
96.94171022956094
94.97288622506889
91.89492655702749
89.44705566978568
89.86135021015711
95.0214510752623
96.72608335286094
96.09118007240173
92.11666506108057
85.18545104708193
83.50433837315903
83.82314696538559
80.2644181564007
79.00856789081186
76.81129408817577
76.80718997652815
78.00659001202364
79.96668179282135
79.64870301614295
78.96594439354185
76.2980649032333
75.28259044142618
75.73941048062272
78.85298920455074
83.30206937131916
84.76808837574707
88.27847761603503
87.15743129134566
83.89070583169459
81.11688837538698
79.30050785520042
76.20324648767013
78.68220624086732
82.52682131894443
82.72760223755594
84.4044861033536
81.69532745443829
79.46065491730947
79.1238863060045
78.10985533933611
72.91144495603501
79.47448714735626
81.60296047455596
86.23954374235635
81.62568675340395
80.28882700625631
76.65191459751084
80.2701082639488
87.65169216568887
88.31214317286666
84.694531479457
82.54196775209086
73.24993480838494
73.65289135141124
78.78802918851399
82.50030355319652
88.23818679465356
92.94822155792525
94.88610237013567
94.77493398774571
95.07658922086006
93.916343849034
90.83660485872404
87.89728757070807
81.92491875881834
77.30011566967043
78.69204602137036
75.33309705854819
72.59458092508645
72.61026555625676
71.37004066159763
71.43451800042304
72.96878428130697
73.77210999495338
73.43325891558449
73.50351249032825
73.88244008119673
77.87228662501042
81.323096256129
81.69213030742057
79.98486376417904
75.35775340471324
74.80396734031734
73.52367818273973
72.78991997479693
71.38014314399994
69.28023021546345
70.86259122106716
72.77094534923897
73.76522210896178
72.80381746194101
72.82123983440955
74.12205111250947
75.02712169776431
75.91255401766831
75.45880334747731
72.9168329771894
72.75414000896662
72.96491907109801
76.0241683549263
76.68803013665251
76.01493210769918
75.18853508422693
72.28745383868731
75.45228927971668
78.38263953697285
78.20890949222081
77.51380393082479
73.85244641874073
73.05167165830517
73.41427768680731
72.43320626453644
72.2187373998573
71.63711336985104
69.63093121736807
70.18743900347232
71.1842497268006
71.45468501711659
71.73318134247
72.96094783772358
78.36120265342585
81.82277294859921
82.06824201615129
80.13717634448071
75.66863520349042
73.82952786940714
73.4482748335938
73.51154352544668
72.2337282866565
71.00564613753284
69.2528869083393
69.54565066705277
70.97966013558855
71.94338788307441
72.8604273528062
73.84657886955446
72.94297372222486
72.18593574654489
71.55393708082508
73.11451346646233
74.98989097029087
75.16878606306555
74.2655321252798
73.94727934803063
72.38237920585985
72.66065647848117
72.18953506632874
71.41147052702955
71.38624707477078
70.92926310155846
69.9461120624868
70.10976395089433
70.26838476927159
70.67505060659506
72.04808889704717
72.25761609817083
73.0294744024897
74.70135767265161
76.12220152555199
76.8483055094868
76.45121541061968
73.25319167124792
70.49161165856128
70.06459526781832
69.85873384706842
71.17227257347449
72.57353642311955
72.87098846851177
72.90592983941528
74.33396460389034
75.52169288059417
74.43856094909027
73.07055389855879
72.70697420600432
71.95000500472855
73.13716247624691
74.91885652745859
75.97181816961967
82.20322601318819
89.31453148580582
93.9181496022899
97.31962792033845
97.64666896693616
97.29225215239727
97.940401708933
96.509660468939
95.44318070649902
93.2427000876185
88.8678054815415
84.41308284413593
78.16536361784091
74.63612767606318
74.43757898615561
75.19103401418343
72.96172210199038
71.85745261901195
71.31000456217345
78.87511842039764
79.31468179178596
78.96018107395346
76.25858251354758
68.72979471926578
74.25296013109192
77.78970062306692
76.61357173696875
74.09685434589913
69.00157912206946
69.28105489000737
73.23447186984623
78.55907870489926
79.64184664503462
77.48964512709817
75.24277752059307
73.62710976010304
74.04779482554035
77.34504598514144
79.89669967959938
82.18218477934779
83.60145789594198
83.19148566519425
80.73149980248434
78.96504493239428
78.0632153005567
83.30947759404162
88.12969933083342
92.8179650298783
91.38855669830825
85.845126796929
78.02749352168144
71.81006957791192
73.46326380402684
73.57298944085296
73.04059483470537
74.56877499950782
77.34436480041977
77.75548875039871
78.1839313607708
77.70870504786257
78.19341328098224
78.89992278706679
76.64696829548983
73.58694637410866
69.25800435206457
72.62457464549654
73.64467327623896
74.03859254393271
76.29857397529719
78.76138259531224
81.13466302031772
79.96327390651213
76.71798013745007
68.65268484674738
66.32689517196721
68.02615876573836
72.8396329076855
77.37464576547885
76.41540379946213
73.94439252017271
68.83170221042664
71.65531085042775
75.94984241300565
74.62585565382086
73.86146551332031
69.01741833785343
68.65734027437625
68.92729749000591
69.3344951345207
69.6883686898405
69.80543881739806
68.37848537360915
68.2010811491947
67.81371329769019
68.23138760673126
69.8311027286713
71.0004027788213
70.36064773593706
67.45945887984155
65.99901902125244
66.9385855825357
67.71502272101183
68.28635447967035
68.18132725845821
67.97174739574429
68.73652141295945
68.85321652402118
71.15966719239854
71.56584880702198
73.20073627962213
73.13815155017615
75.25415097469828
77.61784101839797
80.61538717002642
84.22504757392997
85.09442310290866
85.93648893158348
85.20162085669112
83.39755144051705
80.24828969207371
77.15748763641926
73.5641096833856
70.10863180772574
70.30813480259808
75.14410086044433
77.33224150959998
77.19541348436003
73.94827135038801
68.33303723873823
73.22297550533108
75.63610448923723
78.59049749697213
76.04981136188687
69.5577392918386
67.05013446689767
66.8512491571305
67.59625255963567
67.70124729716547
65.57434606276267
64.33355574320953
66.02274791112481
67.89451453260071
71.7570901118098
73.44482790179629
75.18312165747176
77.62644612647668
79.55017759284152
77.475867991049
75.77610253656776
73.19867180439178
71.76107528732834
71.65209148173038
72.53265712396278
73.05852853039914
72.11732233066422
71.96092265342156
71.6016301396439
70.0868644078983
69.67208264461209
70.98971102270733
74.15957129994302
74.38242039534705
75.86878449360134
76.48348776015841
74.63669050142387
73.54895271866604
74.12866180962693
75.08892151649746
74.0043020081852
73.70947849739235
77.09338821255862
78.49568831459058
80.81613327686051
78.54536312326111
73.5220084819735
72.06834011541622
71.49521447608898
70.46318019293653
69.37544847445224
68.5615760144758
68.29642813358753
68.56371529121415
70.56264194046565
70.13304248879828
68.85673605129752
68.28738548190982
67.50855811467073
68.76495238563604
71.3288249501768
71.94519634958544
69.64231380565923
64.89185085096614
63.44509926430095
64.17065097398178
64.751410403821
64.96185229555098
65.14565925857188
65.08920123250977
66.29112643700522
71.93648413439925
78.25605050932441
79.06969978822876
77.84336492337279
74.68999823807361
69.70860892034887
70.82431256235216
68.48661341054563
71.37974964382974
73.23038189831362
73.33581074132333
73.45409204674917
69.94444400143834
69.23782833166825
69.44783100955632
69.75927640669786
70.3414192387317
71.09683873266907
72.25923111231434
72.84228248938841
73.45994441834327
74.53969769939299
73.13903453519876
71.8991922090817
72.29599113546382
71.54337594626166
73.4092220028799
74.36182663289506
78.3410357930914
81.27209985482709
79.77950623386751
78.62421330483622
75.80475726376363
75.35300043538398
75.36923560068281
74.56427961599962
71.87955672380389
69.66088207563581
70.29793158073143
71.41482659155227
72.94544294793855
72.76164072432033
72.5023906734315
72.03907286220176
72.76172039865313
72.52484795604681
71.60523625736406
70.99342851181356
68.83639318843032
68.18924403682765
69.26907637696144
69.89363401489268
70.31245479854786
70.60841316623424
70.60561083803188
72.2769248059668
74.4881888411116
74.11584424384678
73.75145232621834
72.54934076258256
69.83234564227294
70.78771378727626
72.35335610366198
72.83704308302605
73.05474308588572
72.16857112275389
70.42049318156369
69.59073870106376
70.89756824998776
71.36369749418034
71.84737498944632
70.96435481877624
70.5623531124076
70.85897875209318
70.8235723222735
70.65518033123286
70.94098457371004
72.47389966251808
74.1191790280873
75.80555175785447
77.92215101624248
77.07025708930964
75.87993679852237
72.4384999064376
69.28997211484845
70.40507104713107
71.10007169235237
70.86959816608511
71.38105168760657
70.3222273351136
68.29666595189722
68.07192826656375
70.20912767881708
70.61685079867294
70.86644241326877
68.55711506078615
65.65964863279298
66.6190140655737
67.09635564939886
66.92039197233254
67.50742170419744
67.15890633126111
66.43562793536603
68.40226954861525
71.57697972582518
71.91804820129893
72.51615380008751
73.60757350361638
71.40864397398971
73.97196422935525
73.58600669546189
77.24176481946344
81.92807635923673
87.34412144963065
89.01845029951807
89.03854709809607
85.64028519857507
81.5265150207657
79.49216253292153
76.25358425715167
76.18349622961874
73.21171160031638
71.58747621921503
75.83357665213411
78.63613108167586
80.41187051177765
80.29075676008999
78.75964245171056
76.9607915716856
77.45400626396075
77.64212841508203
76.23050828123829
72.64717158888789
73.38456690597486
75.21998587628808
73.58284901485987
72.71370433535634
69.16845764226731
69.94387609970182
71.6548774496776
74.65806171216255
73.38998637711055
71.16928095751706
67.80911069052448
68.33009826015999
70.79510443049944
71.264123868711
72.21764667735044
70.56745824991518
71.72957832906515
73.86766919942659
76.37855878152466
76.06741118663047
76.29316099900458
78.04453938730583
80.85446505427919
81.28473478429291
76.99535709649936
75.82910948440176
74.59890125394952
74.96540680379114
73.68551081084064
72.03427673056635
71.86241339288283
71.20713423691703
70.66698198661655
68.75075749576517
69.12198335926999
69.85211662480023
69.57636979089102
70.22257753905313
70.48932187311667
69.56641695042438
69.60497322506743
70.51904750143491
71.44658199035959
70.87230785861576
69.96792885643148
67.5825526916399
69.02895654320704
70.20623301201664
72.78488234619151
74.1287605559165
73.71705653567255
70.12110912066575
68.00384240676291
67.8546785115626
68.36857096596478
72.31927470773014
76.62080425834411
80.35602852497382
82.78030352753083
84.20937702286803
83.1767046474428
81.69414166282473
79.8572621604619
78.82983446119015
77.78829177793472
78.15381811613587
76.58412027011283
72.83594901034579
72.7513877848494
72.06377509714201
71.43363982256042
71.00003797141528
70.49811120779
71.47993984988678
71.97020821852249
72.99026428151609
71.99636004421069
69.21652843987333
70.12177601496134
70.15027412563387
70.74031514442858
69.73765969752269
70.0974099545926
70.68970570901257
71.52920918029893
71.50442414834887
73.61573717063999
74.38343310338203
73.21365851877603
73.18194609722948
71.20032672531289
71.58029190500713
75.70332164631891
78.8149050175006
80.70687300078922
84.52586908574871
87.61495003176898
95.12711184842829
101.86525813326297
106.12628962390498
107.06154099320067
106.15082981822073
103.27212169461009
97.89735820883999
95.90744313558281
93.26374544774053
92.9821840232499
96.40485191274455
98.65407150874297
100.78863462030426
102.89184645006215
102.86302511408489
101.8890351515215
99.28678676987731
94.28460477650815
93.23081426665128
95.51407627882138
95.53623491340296
96.13859198551376
95.3047092973156
94.38658014801557
96.11805122639225
97.70754015797563
98.93704016247584
95.60868269498332
91.07252949359635
89.97667070592803
90.268270965165
96.55482269860659
97.67882161416884
96.17364935430066
96.4154817630121
96.66370501094299
98.14329224951462
99.17323193016618
98.87444522459803
100.3245773723428
97.3506430522915
96.89502262013072
96.37896923306124
97.07298935136579
98.61355569588669
99.7721136103783
102.71093435531785
101.4979114722622
99.46922663264796
97.82337838318598
96.02587359747262
98.36765126384837
101.0474954891216
103.31037157800844
102.43195598776994
102.25165358784545
100.4376208463595
99.6665785057839
99.30464345076166
99.50477502107715
100.2064638534204
100.53806348658118
100.5137874191192
100.03983131936675
99.10515725273058
97.01103518634314
95.79237759188744
97.20774671643358
98.50942539979759
105.2538213778907
103.43359544075346
104.69289277919918
105.44318129899435
104.99343819213894
104.22538244382534
103.3774048931171
100.47530867104523
97.05852705807814
92.09102199116204
92.15120412521465
97.00390160578947
104.02967499957883
109.56258969439408
111.86289243372198
112.3448981903056
110.95275733117093
109.29363010495571
106.97073353424088
104.2815331678862
95.0634803348425
89.7936097436294
90.50050486424547
87.7561711472035
100.3466968595861
100.35680691402625
92.96618940260682
99.74761244838011
92.11983639524485
93.40646340571043
94.71691935119557
90.59885322028988
99.98955694790135
101.86299332270745
106.28044149865453
105.16264012507261
103.1297365202125
103.13741094455266
102.86741815584173
107.28290106115016
104.55986067406702
103.99467776292508
105.92629026687165
104.99431801188749
104.45227019807271
102.59270302118836
100.89165432918364
100.66801815989369
103.39741770964896
104.3866455416597
102.84977423325968
96.01323136738966
89.00004854648049
83.32793872310617
82.6634395726943
82.35391210275836
81.21900966267802
78.85255043294242
82.84961716431653
87.37371460266391
91.71012633590557
93.57196052179553
95.5510289100264
94.03069880095958
87.55741663641858
83.07072532214937
82.3469452223633
85.8490089774402
86.64868167264376
85.77175916097498
81.47666764615147
84.98286861479728
88.91289553843951
90.74518623299112
89.43560316542792
83.78289375005791
81.7052867459272
81.68881035253546
81.95094657301395
85.23141039607404
85.2459960665728
85.6216821477352
86.49269461137511
87.11320485206265
87.24913596497476
88.88460307118903
87.13922165150787
89.63193455043651
88.82678075852557
86.13807718072249
86.26950244629899
83.70491920183973
85.0534848863414
85.9608698475139
87.75516235679041
90.48753667168428
85.77561786024214
82.75694972129895
81.08815651506319
82.7148515939686
87.6813495233201
93.57003843320443
96.06277262811335
96.96011724764342
96.84548270914881
97.9097881164597
96.87496058043844
97.21525112973994
97.95492165647433
98.85870324311274
99.7241966664239
95.97181073746651
94.51818278131086
95.380099837658
95.91792201921076
100.19739280533383
97.62083029214317
96.26425517129418
97.59103337405641
99.7275955418781
101.9193415487181
100.81897985379577
99.76039330383152
98.43969872410595
98.1249386492912
97.89549828389084
97.57351286760348
96.68408581197123
96.02221614172377
96.01130161922327
95.52794544955228
93.25041324561622
90.48121587918585
89.43906794584748
90.85416141817893
93.10896241355628
92.9603681705289
90.27924306204895
86.25845714527244
86.93294494079882
89.47014276701113
89.31650099972822
87.21616872903223
85.51836663908806
86.17596622506245
86.86841264792525
85.96950056558293
83.41499473356615
82.4314545344596
85.78634420333772
88.12018461627332
86.9211525522824
84.32679038738107
83.19256158778133
85.37751107167917
88.05844223948354
87.94338508500405
87.18313855657756
85.01162476099685
82.03218226709778
76.5052446613222
74.3438846174354
71.29563099332557
70.52774900788077
69.51687536204389
69.2051993304242
68.14110189932418
68.1300575933088
67.9593954269456
67.271403270695
66.93103559599238
65.15923052921502
66.82023525731012
65.15452614702438
66.74568870968766
66.07679833856335
64.76186036782357
67.18242854604469
66.69174092900114
68.51093319647343
67.02989474170599
65.40837527985161
65.67366834890419
64.75320633184126
66.82755892102385
65.15414774562268
65.11370569080913
63.85170408658005
64.49984682127518
64.48442882368408
66.76299734598493
65.87889418241552
66.28579709431816
65.68099866672587
65.099747286021
65.96033388181775
67.2536066042747
67.75875053359823
67.59744420046343
67.3630865707532
67.50334289938063
68.96271298169854
70.04858185908466
69.77532760887468
70.00778978103695
67.10357632089247
66.96514454199836
64.0644507005093
66.0647749958566
65.97685840230244
65.29672129003194
66.85877844408793
65.02583945311042
66.15363839292593
66.32160826723363
66.32160826723364
67.32103437168223
65.86949279225817
67.01110428995717
66.08053710852724
67.05153381260827
68.38272441668003
70.93945684367306
75.60761829104543
80.27821412882692
83.93906042973015
84.75300569275907
84.74073521023523
83.09114823732841
80.92630242867327
81.65337290088618
