51.789772141788326
53.95587356823631
59.3790789444328
67.08363977381441
71.92379036389697
73.97221882791811
75.74545742496088
77.26284955713326
77.83966101413714
74.02127660124864
70.68977864419215
66.99200341900982
65.24102210639481
65.36727987483138
66.03225942797619
68.18190889617853
70.54536962345409
71.27284210331034
70.86197479220976
68.96544135486423
67.40991020806882
66.04487733476326
64.87316245590821
62.87090144473099
62.289293413394134
64.07500960815128
65.6578675081901
67.27828218677176
65.81400721638387
63.54601088660993
61.07191006455146
59.64261505653438
57.80163325121317
56.055007647146475
54.83457060121357
54.62489266082097
52.19837805583641
51.44351001395777
49.98135749381259
49.358975945467996
48.121885026927046
47.40891313160727
48.37728637651876
49.85924787598013
49.69432570103347
48.655966407863524
47.47101260264509
47.21468292049141
46.703253622056806
46.441535203284616
46.61911660797467
47.29868554959816
47.59974731146925
47.7887421160573
47.15211194031111
46.612957954895464
46.904902449398975
46.66766501303681
47.048395140551534
46.577041682765596
45.627844357447294
45.017418751364836
44.35690265196673
47.48385366764987
51.22196682369506
52.09661122332047
51.807366887110426
47.476708663316394
46.78127918393034
47.94006895319847
47.384349161394155
46.313437220044385
44.0231788653804
42.84109041451228
43.685066295089754
43.770601132206984
45.25392907250836
46.07604798613694
46.3267370920227
46.738208599070916
44.06039000957776
42.49026193129734
42.16888718618076
44.959551937219345
46.34693382588287
46.88472186497051
47.20905013719274
48.090261011261056
48.732641948693924
48.68445062915536
48.06357271706605
46.43612643662767
45.831740199277164
47.273123469298376
47.86982564927766
49.12812377828682
49.415610985042576
49.08187602127098
48.88121355671907
48.149177910965626
46.335312134595306
45.52183269418523
46.61444536404732
47.31364203174445
47.90377609957504
48.82366038294942
50.09692359015685
50.82387757171708
50.1872330121117
49.37972676554569
47.436700898228295
47.72448130261537
47.44635011234766
47.50720123965716
47.83380753542182
47.911904292701124
47.85947814782333
48.31230892592313
48.21829613217593
48.46620383230196
48.46947232797433
47.82766587614008
47.07346172207768
47.34160724290501
47.30106028756812
48.02415036450271
49.317754832616515
49.59521679617952
49.97912770394836
49.926605260654014
50.4434368673799
51.132892958940694
50.955744365580706
51.14838270805262
51.51949454537574
51.166103101098095
50.90236997365087
51.33989666798788
51.61607709119868
52.277380082338176
54.038557610222966
57.77168754107426
58.490942528395465
56.15999610214235
54.630962316801224
52.88466553172193
55.02141052678502
54.92616102541846
52.455284876195556
51.8310567025457
52.0371925709629
52.58982303122513
52.598399576142846
52.97033450199993
53.56571541318976
53.12711892196168
52.68507991401328
51.35895470847115
51.663990174796936
51.766096630988166
52.31303724211232
52.375388180516154
52.66968112406641
52.90089218325644
53.507722500497785
54.234512232617114
54.3309498686997
54.13488786880993
53.838763136134695
53.8298650694677
54.613980328632785
54.00786562075507
54.778953027927635
54.866952684956175
54.17809626775187
53.05953270610586
52.07056811463363
51.543888424647456
51.779790650156706
53.23170221646506
53.440364251980434
53.54247287610723
53.36543429441005
52.405743619309696
53.048002007789854
53.32297581252342
53.41288044533635
53.414422401826805
52.8131355406976
54.158721483724314
56.49352443685191
59.4971858738603
60.712148502707066
59.79772368968501
57.54126721196484
54.78180383129904
53.87353661286705
54.45556463316052
55.58117533260347
56.61700125925187
56.0945389263168
54.49184918214009
51.16864040438586
50.86593649709125
50.965996533112865
52.1429347666766
52.67362215478939
53.17918570956724
53.44572883561042
53.57846671794747
53.053956361137274
52.450860919600906
52.0321533303597
52.309013226710114
52.94262837970309
55.90661174874486
57.1328130345185
59.43243860968848
59.41128228952591
58.88361946726605
57.93406132232186
56.035473164796365
54.870528005356114
54.328616117053734
54.667447889237586
54.86541601078039
54.91839304869876
54.41992273426485
53.672712283862914
52.2788631140422
52.748764105309476
52.83369906939411
52.60554064934383
52.2973748914039
51.89967719589556
51.748947830734345
51.856498724837785
52.572958030847104
53.7310558844236
54.73691074724737
56.95167848357289
58.6318047379658
56.9675808485656
56.132000675988905
53.33861740055172
53.53273721748265
56.241609229016454
60.05815814590643
61.03455267305137
59.61494737399348
56.52751326296826
53.494748816571786
52.7121461786773
53.204053024569156
53.56200387218437
53.75955793418681
53.72782673936347
53.3354032088871
53.601970514573495
53.34006011589213
53.7835814557966
55.03010729413131
57.2791202705529
56.93551264628094
57.09302748256765
56.35987349815681
54.955567927749144
54.5188815857663
54.69553471741273
54.23809338358249
53.9813838826189
56.53806718633145
61.715296621720036
63.975409119846624
64.66562123986212
59.71341811253025
53.49112554883508
52.06462218337244
50.945082950235985
52.258755813411305
53.26007213349774
54.57955685525359
55.05195852675815
54.42585449468766
55.948431783990316
56.76484858191497
56.41537340164437
58.04294545656388
57.04603799200745
58.07395408957009
59.85257157913932
58.38799332563383
58.79823516105325
58.47398127160683
57.88478825000898
57.398091555071
56.90125988286407
56.8888444931308
58.018582225426385
58.76656665219617
57.25452802996681
56.78770979871994
54.18018913424433
55.5986417783439
57.625519286054164
58.75656410087911
58.20703401124415
56.405365705419854
54.77024430108181
55.28257435990026
57.77305525024611
60.91056509309546
63.497071714672565
62.37651173859922
60.4117237006374
59.00344742259406
58.5147871522035
58.30217789931164
56.92784376372103
53.17644339026151
51.83210963374021
51.176996633673156
52.60337273727737
54.96089993573776
56.74871610228574
56.87219055708031
55.79864803256534
55.56149635053195
54.927210816117224
55.61332370471134
55.83222062054759
56.42808780599663
58.11788031164623
59.26413782747452
59.201356328090014
60.03502887348568
64.50482226457828
68.23298860989726
72.91698899772857
75.44863601743498
79.45852271539
83.10007194757402
84.82049683521737
83.97875514768143
81.67923739989742
78.33504713438809
77.27115456352388
77.33668456261802
79.12462394997132
81.4986561417432
82.74238332003432
83.50991613601917
83.06595698354636
84.00455990114905
84.9350573151354
85.50732317831584
86.55796205341372
87.96363605640833
89.51158944440058
88.71157325352333
85.83536773941182
80.78661659853994
78.573098098864
79.96341843917176
80.72529425435225
81.98696368786472
81.87439125014373
81.96119710377762
81.87173708882224
80.4407398728475
78.74975162838584
78.3251705362803
78.58200631968705
79.13861067505887
78.91625234192193
78.38888596060967
77.94512539845533
77.2684579837929
78.35857439988403
78.92106886533625
81.88017390042795
82.8535208183978
83.14898639258914
82.12761276740997
80.27017614897765
79.96933808992335
82.72858610926473
87.21603535373353
92.43644809463576
96.73494038651229
100.92077948183866
103.41980114064117
104.72854790985977
104.7855946405501
104.04200680073683
103.6922954804257
103.75114668309917
104.26180040297231
104.30691714562653
104.30070202437811
105.02826337027766
106.01021808518504
107.6002079640369
109.23839857566149
110.53243985897733
111.17960369735066
112.36283102307821
113.3786412500184
113.83098402202907
114.0898577054304
113.84598539864909
113.80119423743822
114.13370478752198
114.67175453427619
115.63111292536612
116.89334827766952
118.35076412816444
119.05568388478055
119.3385484491076
118.45102240428069
118.27317833850863
118.66448268633472
118.90331620814479
120.07870690068708
120.4597796484357
121.54788502583348
121.81211879303197
121.65651581643543
121.28813882400297
120.05273388345822
119.21005795659799
118.57855769104687
119.45537050185685
120.42782852097548
120.4955570760901
120.30679091999495
120.12102367805234
120.24847769254401
120.44315761960908
120.53221853034077
120.28109999284
120.0869283716763
120.58929437071382
121.23161885504595
122.69594974839389
122.94497666648869
122.21889594327861
121.00597998829387
120.04564169975053
119.67805189819968
119.51663979813182
118.54498299124103
116.71341604478265
113.441432167253
110.01332787436263
108.39901937087295
107.61697300220673
107.01146887461616
106.2461867618993
104.99039777751302
103.85774867601747
101.34679379409697
98.2517096607026
96.10923440556529
95.68020524022181
94.14689733372384
94.02953071253383
93.41956032880803
92.18900803523015
91.65383585537413
91.0745508067268
91.17240007901187
90.74802401418731
91.90308074171163
91.99813619656864
93.43526667271237
95.37492169559188
96.39192065647875
95.97660684436177
94.62794071614348
94.46269957814128
92.57408994156863
91.76863186070103
92.07732389122197
91.59327942132582
91.96744871497448
92.08977398448275
91.85993402473021
91.61921802475862
92.73484864143062
94.83743913741205
98.19821415672409
102.58914822627186
105.30183487777953
108.07844056528933
110.13618181225532
111.69451233248235
113.08052294898843
114.6421345355404
116.29562233943592
117.54763279446823
118.30114621535331
119.0739884643604
119.6642366665232
120.76036466647467
122.27087273266173
124.10746540053425
125.38313837702722
126.01207593155357
126.4969744126737
126.6630375816585
126.97591663769599
127.94949725888232
128.2299471758845
128.97934442483586
129.473094055783
129.95267306810632
131.1269986737766
131.74973157586834
132.64645344491475
133.26234375367707
133.93890190826735
134.59579456378006
134.89250733427068
136.00699963662564
136.25488754820654
137.16027303728916
136.81110298204368
137.05510096472537
136.64118635716244
136.30116014674084
136.3589779350553
136.8566882223417
136.65524237226848
136.44873795458264
136.03194625892206
135.0541682097297
133.73433864327723
133.64632743552372
133.52359501457485
134.65640967426793
134.82345306363098
135.48883279547968
135.28820042986177
134.14327822786797
131.46179627633302
127.12782763378232
123.87532187060404
121.02728579989018
117.17485238085692
114.20571090186169
112.07748537045404
112.2663460887477
111.4524681529496
109.61355455149332
106.66651989831485
103.7000965187843
101.90383160293734
103.30218666044534
106.23470272315339
107.06915853201293
107.51517673993142
107.75159276386871
108.29840246858967
108.54934991873422
109.03818452990062
108.48176659823447
108.88243068401012
108.79144534047843
109.16619886467245
109.01141475735447
109.64645094758264
109.4509611067906
108.7738551073525
108.23032722321906
107.93100065219502
107.33717438728314
107.61198195599204
106.71739349114131
106.31614183782645
105.91830458868523
105.21569138134473
105.45121917560724
105.20747888697682
104.60423283754426
104.52440596820836
104.37603663062487
104.37004173682534
104.60545654310214
105.43519926597841
105.68181366604578
105.2051591193708
104.73006146158106
104.22450036931345
103.50916533148292
102.81487762634
102.98977010550824
103.50841622413594
104.65310645715081
105.70434176553493
101.93162311192866
96.4754856317038
90.57597977710041
86.48288062167948
92.08561095029987
95.67772869722255
96.60119182738329
93.9309551121271
90.21828426047698
88.34541928941883
88.51476669033508
89.22751873813303
89.41338884533477
88.61256921758196
88.85414969420475
89.60529544052746
90.90310132246844
90.3021025054332
88.48934597087388
86.10114243481601
87.880441522665
91.16090492035103
92.11751721049029
90.40289074282073
85.78442259371676
81.34564490660138
81.01143945206562
81.88465133488776
81.94085506027241
81.81244071924809
81.44266174622516
81.57352565867163
82.39189982407106
82.105478721549
82.18430948655516
81.63282969752836
82.25152813870594
82.77866613883504
81.51772039535788
79.54036708801155
78.50326581777517
80.14974978976167
82.54834793371049
84.10495632713666
84.86534929926518
84.93905867035107
83.93189581396062
81.94939997469368
79.22395543665675
78.27533229535558
81.87430276115201
84.04664929871934
85.38753743555456
85.7634817705136
86.34322225727158
89.68700097119572
92.03852798981643
94.73747939891724
96.88569453899991
99.76577382327095
100.70086601505659
97.25131395671728
91.7488027757196
83.77808081090039
81.75307620449631
85.50084562665542
89.25118300879727
90.88433226775959
92.20340590773516
92.1476175609126
93.25833921484342
93.15494111309657
92.49551346545958
93.18643267739633
94.30448278164535
95.56313772351304
95.30579333407478
94.45425768560922
94.23644701062109
94.77010282243636
92.91909732345175
90.39980044790724
83.68737800352044
79.48330977723425
80.89305673708002
84.10465655710489
89.5670911909858
90.28750093756645
88.29454871803824
83.99694578196808
78.4020676583603
79.39091152845393
84.14075427455175
88.77934030767541
93.22008293060335
92.32256396266266
88.96772380775997
84.99601819185688
83.52405721854907
86.3097340061939
88.48981818421959
90.42704726272345
89.89950298691446
89.06552145918953
87.96285665937327
84.77065992602476
81.405977704471
79.52643703028046
80.00851342166007
81.26130796116999
82.52335243344999
84.23749485787566
84.49969550491554
84.95070349355399
86.02949764009968
87.16155760130158
87.72654732274897
86.8766685025648
84.0251608712754
82.34742653585003
82.90428245234503
84.81376843536633
85.04205006936145
84.39489507503824
82.82476855145613
81.6566941747177
81.83189104407467
80.48192813421792
78.96226161442775
76.64535833831063
75.43758632048274
77.48288620018289
79.50127225943795
82.5400357984701
83.37944485238197
82.84221714081394
83.57456197059062
84.85460144115356
85.53394023274352
86.99107847472395
88.04126376901017
86.67027317092392
85.97133495306204
83.9010898978035
82.22279052962544
81.59402463499892
82.37298828035694
82.99859001962163
85.01780498480855
84.86507434160515
83.48294497803124
82.23679715914406
83.13776527343529
83.9769956371454
84.06235075647452
83.62091152691654
82.60205118776024
81.18923247556373
79.56455541441439
78.87631632978835
78.60207191690372
82.79309933040119
87.06070658596036
88.60979927668902
87.89145789104398
84.26560179019381
79.87354049860943
79.42608554965737
83.39560778471062
86.97213355130324
86.25238312216919
84.78326814189404
82.36621882102462
82.25420599940294
85.30083555689272
84.26763094817142
83.86137900393682
82.93811038010296
83.74052559978693
86.2361994086762
87.15810671771388
87.06195344661765
85.58193736554468
85.58120037916291
85.57492090492534
85.68941305614075
83.98140781178672
82.72624627457526
81.66405518921887
81.56889624321812
81.27461668486822
82.57466165693143
83.90068032918515
84.37641052701997
82.3081045666968
79.87936140990254
77.66523695356733
78.37829321472957
79.58309879962809
82.59321107315904
83.48838345247586
82.84633445151265
80.69735288391544
77.35313752033812
77.68549302777524
80.42326714304711
83.96529582703428
85.37203004474452
83.49438771286401
81.53408919398217
79.2285699880219
80.34667676580844
83.20852976526706
83.31030050593783
82.61976715836889
81.41895422907022
80.76021129603909
81.23354961098455
82.1653029137335
82.89141384383582
83.25404632152095
84.62802947792576
84.13118273066327
85.48439855369358
85.20195268547754
85.75634380609998
84.50547785530478
82.0283971593071
82.74388454626377
84.52312050621342
86.72138636468232
88.87982663340559
89.89607505347921
91.20107423417467
91.37717611219706
91.28612352349514
91.38192179396741
90.4482499357319
91.79640497462982
91.95642348982511
89.93095920367354
87.02892970723543
83.46593491352124
82.5172161766656
84.95121948015176
86.77877842153312
86.8868616913809
85.98459481583953
85.29003255681286
84.2070381893771
83.8277486037426
82.86193995784406
80.4375283957226
77.60978549137216
74.90789031660982
77.30717569428852
81.51418614717515
83.6081711698645
82.45485413677159
78.90168694727907
75.47455643808976
74.51332318750447
76.62046837960958
76.14563833466198
76.5959183313093
77.46442584513298
78.81938903604099
81.87669970064833
83.80732322470615
86.15625177885497
87.81639311352482
88.4833048385727
88.00358516548424
87.38309603934341
87.84018127334534
88.88292466518432
89.93310561957868
89.52399331841421
88.75771763919039
87.17299620939524
86.70043143990475
85.20094542158363
83.46088582663444
84.37773581567095
84.5450944299789
85.18848562404024
85.22156546093451
84.5198572611918
84.96051254186933
86.28959904809672
87.54044627834114
88.41171881376478
89.55278923890413
90.6614555463562
91.80902794496852
92.93270966421926
92.6629711487405
89.73053707598194
85.79456823513713
82.13829372664406
80.43621945444809
80.85311734092772
82.45896069069902
82.6502743958683
82.28176306798306
81.26608889554521
80.59016228366727
79.42291933913964
78.89405617587268
78.10994499823086
77.91026536856631
78.39675892818809
78.51826483154585
79.77790673960945
81.71541281960168
80.79525980836387
80.5035963256407
79.65147401738052
80.29993174229931
82.06329273777462
83.13592548692476
83.48488293270408
84.2985155975905
84.76001153153442
86.10690557152914
87.27158748306053
88.92125897918139
91.18369449242788
92.22982770855658
92.97291367119635
92.73559668190211
93.14865286620807
94.40846978009716
95.27119110202158
95.40543828187351
95.06777214089641
94.3969895160525
94.81640492283081
94.99739319821514
95.49702989139072
97.24625453540976
95.49011263356441
93.88268043745421
90.34890046054271
86.21947068162413
86.60087893404888
87.39586553989201
87.69094941986428
88.54232517160311
88.230603970454
87.31399435445456
85.92852069462637
83.29270307330128
81.95370423075092
80.93202643728713
79.86665873544908
78.87093141325406
78.10835064801081
78.74998807650344
78.72479775487564
78.70109707450825
77.70443776200725
77.61793771502383
81.78441867734624
81.61500851629738
79.70824615375003
76.09591753628439
70.20024019482685
70.92512913613805
72.585908500934
73.22531562999501
73.66441477695675
72.38944517408001
72.17829506007772
72.6090309386588
72.2620873201691
72.5249930113224
72.96678996341684
74.24628293477308
75.3067720522409
76.20927269425303
75.98530609815917
75.28533699907507
75.70144334176298
76.7936136358394
77.76215078114117
78.64594072930022
80.11973571484658
81.20160385710275
81.48426576995593
80.13323537223475
78.62539093548537
78.93636152677377
80.67988126274777
81.64627013740036
81.43520770493159
83.03492914760868
85.34660061670995
87.63366257957728
87.04237342405374
84.43134153147048
81.77123812214458
78.89300937841315
77.27392543909552
73.71155785766898
71.78441398364059
71.11862739460989
72.95632669973861
78.63904564175675
81.84387106688186
85.96878060097436
86.33203666466132
89.5628561660156
93.3671478754216
96.66761160156265
98.88074657496682
100.07146385869585
99.20630286843355
97.5296105115143
94.26125145069248
91.97888707574269
91.624909869761
92.44907787913108
92.33302270453946
91.73848545366133
89.84608328923538
88.71383777078397
90.58249722193912
89.17900080408239
86.29323299427394
77.3795407405214
68.97273422535801
64.11849755397085
64.19561007467934
65.80581514659487
65.82235317640229
65.67714197706125
67.14251536045717
71.59413271531989
74.91527406056116
76.35228897705916
75.07454647615018
72.8343847192095
72.36065226264509
73.26747085350677
73.1754638163472
72.08890822363153
70.27383708966258
69.02043319856656
71.05406411663743
74.20213897083521
75.91109337502716
77.88545986510069
76.43598350768622
72.51354076482004
69.20921288216508
64.95141310907391
66.84963311278067
70.96739440748944
74.84793671515307
80.57750182966802
83.24382846771728
84.18808041730976
83.19917806396451
80.33853443590206
79.78708366329714
81.36203961713211
81.98236331519952
83.946102673478
86.03691210305041
89.2711349219445
92.26199397170035
94.18397025120659
94.7943819032123
95.6419450956886
96.15537008899851
98.0004765883503
100.4589626352962
102.36057507823574
104.11835882280282
105.75626965365822
106.41967540558059
105.32686218548662
104.88345230830046
103.66834382273653
103.61956777644764
104.73597988379018
105.83285279923764
107.96022344808996
108.69760048084342
110.65690937791128
111.06877862992265
111.73041455398051
111.99610268607877
112.0874568955695
112.36032354896975
113.02129386455216
114.2446862094298
115.2176498042963
115.81721385275593
115.60495996936758
113.86169303277562
110.28421212435788
107.166935724058
104.2865614228574
102.03187588935435
101.832217672901
102.82133405248402
104.26433677629151
106.79462267510873
109.29337211965274
111.58485424981106
113.24749573773371
115.16676355294446
114.93462545385547
115.51570548890216
115.34395134611641
116.17973579917063
117.72598848312477
119.56184901238929
121.05445057599582
121.80317564359437
122.18899248936461
123.00464196555635
123.28465855269896
124.05668549443347
125.89078479333764
126.64364640580371
126.25360551287763
125.70033258061687
123.83699917822601
121.96892491849032
120.70658033549175
120.43683474826074
119.57316817523976
120.02809274059831
119.04006321642464
117.35652119250595
116.83031396220912
115.50880089255514
114.9075409686768
115.27107825035621
114.45726267974018
114.18389805121122
113.0354930538183
112.04589824199952
112.32895196482096
111.98670563968759
112.33315931540672
112.43189318529244
112.44914023406648
110.64453569407608
109.94780937348064
109.78730983268807
110.60290042538774
111.4300027032733
111.57023801521152
110.37124073437685
109.00204558419463
108.57294439074319
107.01455992477105
107.06145870106751
108.12695089733094
107.913642637776
109.01262459350484
107.95461692915849
106.50067418042995
106.1816416304952
107.27636648091311
108.00015226884642
107.56852413932135
107.2224371848279
105.37333836539817
104.91270537614888
103.70906569119879
103.94549056932563
103.87042883841042
104.16836225118348
104.79686188458855
104.42703936753945
104.58208715714886
105.45286637481203
107.18254956995422
109.43460697813389
111.61838149694067
111.33392682504525
110.0542704537716
108.13812166299944
106.3332398290023
104.21179150138488
104.59237104978378
105.47578432910237
109.35489463357648
113.97750312801018
118.86533724402487
124.1771070850958
128.66216169683938
132.05844992236143
134.154309904898
133.42975128521434
132.72220593781194
131.21323134037982
130.10774448951344
128.66840283919666
128.52845123483337
127.27455421555533
125.09819160722078
125.17432704133887
125.5425398050907
127.01882714493934
130.22528544402223
132.37143126849878
135.2356130648792
136.69263755810505
137.43357748017226
137.09938642788495
136.21244923778264
135.84547122835735
136.0160326098949
136.79678914246736
137.3595129583891
138.42298290088004
138.50283516411068
138.22626573512755
137.5251479223638
138.296755354242
138.07197338175214
137.04525245811507
135.92728961493904
135.27940856867738
134.5317032362975
134.32343729184558
133.9439092015267
133.26000081400764
131.92409868230476
131.8561120982804
131.2780254989513
130.99985784569364
130.86301736670433
130.73359652509689
131.30000169496213
132.02615005169534
133.0640505093482
133.98368491733072
133.23505660921472
133.0659186023858
132.25829226372048
131.5132529513074
130.82375679363628
129.88483158427607
128.2936523255219
126.34323491436804
125.30267995035786
124.17852759215376
123.26907700221145
123.51576334280253
121.11633446744537
119.61387810557356
117.63569525924076
115.2198768270572
114.16966078167052
112.8183465631167
111.21060835263712
107.16998177594128
103.34152260091248
98.71878566559117
95.2908873427366
92.15504123821292
92.45288832086776
97.6342395959736
103.2266831489502
109.11473397558083
110.82670103207954
111.0237921379405
111.84327723168803
112.32619240291194
113.7267849733296
113.56327759377773
112.28285225811167
110.87398538383364
110.64647534307092
110.79441059542404
110.7799915305953
110.3772675688847
108.56519453354734
107.59183349984451
107.04786845309194
106.9982067715859
107.47292973660343
107.97754214097313
109.07847663424629
110.1283897135692
109.6321127208049
107.93966499623188
104.96427705119132
102.86730805444557
101.70257345868404
101.54420565270402
102.30575516337524
101.53259197481462
100.54371703275244
97.50177095007689
94.86946417462055
92.57688347502993
93.0385080687097
92.82312155726044
94.02709842985628
94.98813676056618
97.15572504767745
99.33677024485124
99.04268982294458
96.98871503328587
96.13656219781977
96.30398779623647
95.18176817374766
96.06364618740469
95.58347307962777
95.30972746773823
96.47099527179891
96.95257114387005
97.41165152700292
98.39049089927386
99.26939741833644
100.08291876790382
100.81979276364159
101.17700665225087
100.99191269506002
102.18573548582647
103.56520438930576
104.87852638084406
104.58805903024937
103.58452976325056
102.6648813996163
102.42284669893793
103.45166184727782
104.75986992213721
105.93909401956572
105.30484176951373
104.05143999050964
103.13009955069225
102.96296383351427
103.05717475936495
103.19547147287187
103.88613713319518
104.30764512518984
105.41053093502475
106.26167150815373
105.33947673703928
105.02022226658877
103.20297625681991
101.93117648018925
101.35338993904473
101.68839070336175
100.97587266335849
101.14736000404615
101.97568265127332
102.92434140467341
103.18194033178467
101.65489068872039
99.53056635287696
98.2393773944254
98.77434963435506
98.92462168063467
96.85910391465029
94.49321495769136
93.81176350427829
94.81022324588685
95.64764661631932
94.70718158251621
92.93617517936002
93.31117070269751
94.33572958204154
94.53578400999646
94.15480587411649
93.71879343462588
95.17354157417871
96.5805995250213
97.31031865157804
97.40652632108385
96.33092938593312
96.78878565312914
95.92274202121676
95.33174409820164
94.22492635450327
93.52734156766705
94.1387361935578
93.72762633407233
93.76090246447217
93.60678338104539
93.97589331233927
93.66521743017235
92.326195766338
90.38812679935745
89.82788813078353
89.12592692090983
89.69599878934743
89.58011242510496
90.34798303433291
91.17852693022373
90.95644254913964
90.47693925586329
88.74464007329867
87.52679388992544
86.5167496839175
87.02070460366339
88.6761955255727
89.781800058751
90.83526913704827
91.70082797718524
92.06248884382453
92.65522849652795
92.59282055426291
91.36788269920874
92.16284794959103
90.2479093049622
90.38979640337105
89.90892154629024
88.75060596700511
88.88336119898312
89.64262431741189
90.64264086173718
92.24602403161244
93.61879792979607
92.66833867216177
92.7205884195322
91.23232469774813
89.45782794588716
89.92251874075683
89.8687415334561
91.47185932307615
92.13318437107587
92.00563770577574
91.25254909491294
90.6976739637735
91.23302566402111
92.69795600225679
93.92547530238572
94.17873107168784
92.67475941420274
90.44695949317811
90.01893637847596
88.96834264580875
87.14725499215875
84.35458974152874
79.48796239479427
76.95838802700678
75.95020081150334
78.20915081757813
79.56738218287626
75.51147661528714
72.91930537509747
68.76364918381697
66.2015298381536
66.21903563559219
66.11880104082537
65.7429631261343
65.68567943039653
66.39485972297703
68.55298626079656
72.60103255845468
70.54502630037307
69.56016597256729
65.40709951399985
62.85047747833921
62.16453338749118
62.02191323251477
59.675807362938954
60.5861917035322
63.95126420479752
66.1089297737163
68.31539838532835
69.10960648493307
68.90042941002926
72.37602720805181
71.11937953887882
68.97172405229746
66.9260116993839
62.96929863446121
65.9790049879901
68.11908031405892
68.84032089090584
68.42080408335327
66.18832797774678
66.67136522951901
69.56781748486684
70.24485910634317
70.24544732065164
66.70134611741567
64.00654522973696
63.943457655740154
64.41171340481607
66.46336076354778
69.01231585201836
70.7026540761961
71.11785669457073
71.09340145282994
70.82142806716602
71.62385349131229
74.26065873791022
73.98233163031483
74.7443238995274
74.45443012024565
72.42198323288167
70.71616101053418
70.4741121472526
70.90972762947737
72.33750473636778
73.70801704181615
74.23122900136433
75.13799019053519
75.97536886630465
75.89356061608586
76.1290747382382
75.71156551096075
75.52668828769433
75.99320454911103
75.55160617133569
74.59638412823656
73.19354998567172
73.44772759476268
76.20480434730422
76.47788270820925
76.76158955857383
74.88682539544476
72.93636661998306
72.72706986716682
71.47952147231281
69.55919293340463
67.49659922924076
66.61863301043861
66.77661232389302
67.06197647356241
67.56153430500709
68.2529546888191
68.94092592821421
69.80548270395673
70.39986026742008
71.43346501327018
72.05409988102411
71.269280020813
68.9405195686782
65.97918085459045
65.49376540898584
67.01132523479379
72.06415923571345
73.7752349272236
74.38591369465927
73.65536636728527
71.53990506317056
70.09389338179851
67.67511725998813
66.69813288334976
67.18598565032387
67.47785570304224
67.85564150956858
68.97728389540333
69.06384829173595
69.34343808313223
68.82355707972722
68.81218998242005
68.48909032010573
67.60193831695459
65.81160354314923
65.09529300922367
64.31654281771102
66.73814368601396
67.98569558573976
68.03856236781726
67.08812779949477
63.793066421202795
64.30196898916698
65.4321147751672
66.57178618282707
66.37165635847487
64.82640578956864
63.65874587174893
64.72373088306215
65.24415974089922
65.66816663850202
64.72621273383973
62.69258750899298
61.82365666230908
63.3458968753792
67.29441095983907
68.76361670220335
68.9647792023351
69.19545512582789
66.98735434599949
67.56769032274241
66.05347250747832
64.83127622535942
62.943620753950974
61.015764211744326
60.64797227689604
61.942853917500656
63.687001834215884
64.66985676328777
64.86804533836533
64.22070842996601
65.43292191801332
66.24525210097386
66.54946485781473
67.21541137614315
68.04281876867051
67.9972226861762
68.22344139900002
67.6762074709901
66.93855781792536
67.50953357576512
67.75092295670058
69.01168120627567
71.00613384933826
71.18978880938366
69.99864166659391
69.61729472738996
69.91500086601118
70.4881483489886
70.3786409804215
68.40022581771711
67.73404678877998
68.2145271250273
67.20835853436978
67.82965715319148
66.91922423738009
67.13327748338271
67.13923987047959
64.13927997059072
62.40591925553665
63.819502861629864
65.06659005494157
66.60602918892035
68.32390562845687
68.83312827334905
69.23987240799576
69.35859855270104
68.23861768605819
66.8432632574281
65.62439624206414
65.97281892728944
66.26731971913333
66.46620295171456
64.940528501957
64.18358017128743
63.76827520593887
63.73406285039104
63.773542693861764
65.16221667767708
65.48023247269772
66.34474006456708
66.14152255693739
66.10839411646097
68.80357551254629
68.9702174074061
67.42094482738756
65.47682563709537
62.2676713161991
62.19041435649789
63.49883095771533
66.4751210001894
67.95228466788174
68.61284059297506
68.00131449964783
66.34530457980547
66.15465916731318
65.87086809011939
66.55494497757137
69.45789810280696
70.50299163875692
69.24098822013298
67.87177996067555
64.74596200563481
65.16048476992384
66.54553944285931
69.58067050467231
70.3733290155769
70.76662414382935
71.10132532222626
70.81041362754223
71.11246039668904
69.86934791321883
68.1940717130735
68.5679723019625
68.42558505035936
67.37239040409821
65.49531530823613
64.04933682313504
62.82452717244637
63.322221044853805
64.73682312760518
65.716141449029
66.15695592918344
64.71048526351144
63.85434986726219
64.06147754295081
64.94375311966387
67.53212468123071
68.58792001053251
68.65667832121068
67.87857646256637
66.6238639193497
65.76586864350391
65.35581697929143
64.7023366635282
63.854755627576004
63.343074514703986
64.01014121325036
63.06923436799076
61.98508723669333
60.85295447851708
60.08134703906584
60.46348372439508
61.502312008302155
61.1439173072771
61.71737393198983
61.79338441981217
61.20658892629787
60.82872022386356
61.414231592546926
62.18201700985688
63.14490612284225
62.789546766449405
61.381790287530166
60.718718170921356
60.63709151457416
61.43281304390353
62.595231096108144
64.06032806552787
65.37468864883812
65.9033241732208
64.70152236792288
64.15165392882639
64.15109150347914
65.40217984952533
68.44652473773615
69.57655287343644
69.6716560176875
67.49858769583162
64.81713285495167
65.96226511363359
68.8469536055243
71.47611341491573
73.76548711041433
74.51627283639623
74.20991491485569
74.11661117692411
73.60600965230964
74.00517630887947
75.35979037179155
76.89237784622966
76.83166583528704
75.54917459018132
73.54230772588126
69.55727153967831
66.64656045900469
67.04184216696018
69.32088460450223
70.44537050948881
69.81674438856955
65.4849492445884
62.52640564549323
63.80178200118885
64.9513837352176
66.4228115613403
67.55302183873015
64.53872118541098
66.87159821077938
66.58943162974619
66.73179788534827
68.15684326334505
65.92241211429601
66.15027225240263
66.11172625220264
67.66633059268588
70.1568488336577
70.28122056584046
68.82647142534456
66.49562712309705
68.07478350595072
70.61055665998029
72.54190967981313
70.98023217316012
66.75615530414055
64.89850449049398
67.92056660242798
68.6581866123579
69.04371150692972
67.5012703255465
64.32981069180119
65.42669074450029
66.72095436835163
68.4662008185403
67.96439760520587
68.5201987143411
68.17326669391005
68.73968912650358
70.52324308061675
69.74768481621342
67.92504649641747
68.10526281853498
68.64981249989702
68.88085301250894
68.4229223894059
67.38286114712955
66.4437764448331
66.85270834257494
70.0968182905624
70.51318854177913
71.6562491778486
73.3027353296916
72.40853276878725
72.55757332380502
72.53426151700157
70.12464952234954
69.50196709069937
67.17948654395488
67.57892760222269
67.7937828134294
69.57175519017986
69.58004737770668
69.99030388117366
73.25012261841263
72.30383839296587
70.94815717119906
67.77373085095715
62.356477745414736
65.12119500682807
67.06235974468454
69.92664342874056
70.06169580555553
70.62308636836028
69.29719775484176
68.40682076253682
67.81940604085719
67.51671941883852
67.92603092019104
68.30513000020001
69.95372430174339
72.74527698643419
71.88387542469053
71.85899328547552
68.57470944672428
68.66765738431005
68.05044212341963
66.68673508391768
66.68939996902215
65.73205215788242
68.44679034292159
69.03328246636647
67.81403778098081
67.17108378792204
65.04118211187028
64.04246145955679
65.77644575403247
64.46657031721975
63.8917754179216
63.241720055297876
65.10182951030043
68.61131122807153
69.90347512776552
68.9995021290606
68.2701155157719
67.66671709299229
67.7236994926364
67.41767285694162
64.72111170927022
65.83037502986582
68.24522704904498
70.08250913881491
69.8212060894667
68.24557800476379
65.8113551675896
65.74656747034834
67.11048427396562
68.57753653379648
69.3763554390197
71.83618420467661
73.30696432258102
75.52236350230618
76.6367178284407
75.9116434266329
74.71210741037208
72.14435076791418
70.31875686270196
69.01581439712979
68.55121829480632
68.3136576003291
69.63215295650878
72.57085003466632
72.63363849434413
72.42325325585787
68.33612972288502
65.02991796717852
64.9318994363814
65.6450670826886
65.51258546217255
65.27742653183604
64.36114319734837
64.46674778460421
66.66714820549299
68.07743151825903
70.208263958294
70.50312932882967
70.30453484065826
70.58731926552859
70.9049343455064
71.40785466433252
72.2339845743523
72.81608766282287
71.0701555780436
68.84973830926546
66.10325607509384
65.65913410327653
70.06256366279831
74.31920115845338
81.52395000295387
85.52475905290649
88.63703055746255
90.00808756379685
91.2457279768047
92.20963378201814
91.79436387532333
89.39962494557234
87.20942950535559
85.12212381355484
85.48328777918624
84.37390564550051
82.16433489616671
80.17494931758111
78.90461316584886
79.25540627443395
79.8615827034854
81.81387423000638
82.61495340231563
83.21033518367437
83.57368932104617
84.36462631046751
86.50299511222957
89.67865980297373
91.86982177363235
93.12837708781566
94.86672877436469
95.52450943524411
95.86403389467921
95.56071978850093
95.24586284665152
96.39344258963463
97.03041148582894
97.90906018565107
98.16416899079049
98.23551051002494
99.05769599796925
99.56247703249541
98.92856993645157
99.1830901684678
98.92219986263147
98.21012077794241
99.49931041750158
99.05513337137263
99.30959123080845
99.02116876465759
98.71854294125939
98.75727887794305
98.91188627469208
98.41356802385734
98.3953024738351
98.12750495246547
96.72973719672181
95.3392887878444
92.52169664492494
90.87361690726824
91.48752189777743
93.22315314838711
94.41182545247561
94.88038768381118
94.4955384444947
93.09466746678535
90.8977840125305
89.47064609275279
90.47886657529548
93.03400375094803
92.79471006379453
90.41367136528612
88.71812352995381
87.99578831498872
90.62244362740586
93.32525174419939
92.28801470239084
90.8964167680795
88.33474688547867
88.48788338114375
89.92620719461371
90.58609452544337
91.38315166597101
88.5069753009998
88.35780660781863
88.39418075585436
86.6254063113193
86.12357118585591
85.0603668142178
84.39621885851254
86.47146241351602
87.03032709389126
87.57110970808016
87.69063979339577
87.09367702485896
87.01445251154699
87.62128250743989
89.3136316840604
90.79985552045525
90.56707212954223
90.97118534286481
88.65670141683914
88.31358651655643
87.35523919683642
85.95619843396176
86.56272070768838
86.12183435861516
85.58323360396481
84.62594831969791
83.77464289169606
83.1235275896352
81.66319125821994
81.75593965692653
80.98249447258719
82.76920543754878
84.37500628929425
86.51154418681315
88.02960269572569
87.82974160167677
88.37599930105836
88.01205693506708
88.97487077615092
89.4656643159783
89.5010444987945
88.78333209864364
87.64082857244344
87.84789537834206
88.60351977598357
88.98611784537349
91.11399209059866
91.9207130700854
91.36523928272564
91.73680481719215
90.25981218413108
91.87984238393561
90.76587466379486
89.47744040182624
87.78644502495953
86.21798392563082
87.44911395814341
86.83535475067158
86.95922710495093
86.80655641110367
86.01880445870292
87.32787290428132
89.80661385394816
90.896294046169
91.54601946560247
90.89525742814365
88.19628370887871
89.30018911246913
89.180589480956
89.18123643445908
89.23231401348086
86.9773599491556
85.98742860048806
85.9379791333975
85.81055908862463
86.76180513272725
86.22702491139015
85.37176418690288
84.82917988282553
84.89893628884488
85.90618822833116
86.45491370561894
86.33997791568062
85.6982721967015
85.34148742965667
86.26933505290062
88.93896310225341
88.40322004748386
86.82469030208443
82.53473667491771
80.02119411665893
81.61480857881318
84.9500357106879
84.38121079340182
83.0598990308749
79.55591105355921
77.7031211356352
78.17659505790779
78.56770374845819
79.58382414331548
80.24759482603542
82.90127187697365
83.1237540937487
83.22657207902026
79.44768560337641
74.4987154587934
73.96919034673789
79.32723961043405
82.50137123372498
83.58887577838428
80.89019145216956
73.71727028893501
71.25826854859257
70.51635278200746
72.11134147451003
74.20065532858271
74.90266936006694
76.79905814125891
78.03143159611218
79.17928406795284
79.96764428201394
80.55353537692253
81.77708843123904
83.90177228987844
85.30301636808659
84.75012268257348
83.49910547575173
81.872541613291
80.42324992063485
81.51285071810562
84.30681909735704
86.69039278453046
89.3245405007007
92.09867426660269
93.95435824647116
93.99408272013207
92.36290837010584
87.64948423690458
80.71858760501117
76.4434259344095
74.04442818987216
75.84174834786668
77.29618366965312
77.5972110913711
76.99761079483771
77.9475075801133
78.22031025866788
78.03713911125863
77.69672381409157
77.60739372689193
77.98492066127643
78.36696242002571
78.96796373408705
80.16095340851345
79.58054537335198
78.14371388039694
76.46569740049105
75.99028469912622
77.18012595365973
78.75418204273207
78.07768095513839
77.5198243612808
77.18457085379548
77.98199521250774
79.37726104944498
80.22849657779005
80.80001559804323
80.81958685190986
80.85605925074344
80.16915723586024
78.35948053491092
76.65603100080982
75.85574305421608
76.38574143968123
76.6151346687548
76.34333838653967
75.83147140765493
75.36090491278787
76.1006632215641
76.17646826624811
76.01237010771027
75.37262221193639
75.21595978433002
75.30857217630549
76.16967027137413
77.21515472727664
78.90117827527409
82.11592237253053
83.62230392386411
83.38121990601984
82.77894809238026
82.61777560431452
84.16759800711552
85.4161800929615
86.52304216856649
87.26028993856234
88.53153579279723
90.2554791150796
91.5396292816518
93.06981145284036
93.92748296169603
94.194530911824
95.27941691306883
94.51485917272709
93.04465465199536
91.74380959048925
89.69362605572029
89.36297597404186
90.04613600059363
89.93334729284365
89.48161496660693
89.50257805968201
91.66468808613534
92.9369683527616
93.7029850988032
94.04875695678201
93.1693080137804
91.11353379432191
88.1559237262681
84.83299358101162
80.82169127885305
79.37831176591163
77.4110306950161
76.91195953468232
75.7768065498642
74.75011612317897
75.21438226590915
75.65659507954291
75.60929913368203
77.98264748665207
75.19815892351816
72.23825550397302
70.40504078709283
68.72194533812916
72.91317302861685
76.65492358035989
74.61513181242171
70.02753400945619
67.17776509024725
68.70858776041234
74.55673798032575
75.66037413479485
73.41929446568085
69.97216814238529
66.2044221253455
66.46091059251756
68.03271857490418
68.69736115232931
69.53222176529317
69.69420249452833
69.12770405649519
67.46318967464637
67.03392469498331
67.90649054279473
68.36238894667481
67.60855651483426
66.24472374414363
64.838321821872
65.65225209924355
67.42188184392751
69.44173144370606
73.04510204302278
75.11348400062042
75.36786770345908
72.75658778584456
70.9728972606919
72.13364016166298
72.27039602717788
70.9069486454565
71.99960790066763
74.89718666907753
78.63698242493706
77.38952141715576
72.49379158466516
64.01187364674229
65.23176103243946
67.32072911850206
71.46103503626586
72.87038614687656
73.40883204617178
76.03722369389688
74.8808765276722
75.01009934004595
74.88372154670769
74.56287310310276
78.19456762269436
76.46396189964942
71.81890907826136
67.0069444262022
63.354244970473715
67.17760366991371
70.35281369134681
72.08049861785375
71.74809538431465
70.74868233757613
70.0391373854189
71.71538211737915
75.83040306387004
76.87077823033006
76.17351236827398
72.84847756921151
68.63811662077572
67.74000173493005
66.83130790538593
68.5808037593765
69.42101683769735
70.92772788560347
71.10088766275112
68.62663226407399
68.3237563024029
69.0690309482893
71.34627608137346
72.85723624553053
72.44881700789762
73.09209441716077
75.77134841189857
76.1086454366186
74.53250613635669
72.41507469670057
71.19497542623176
73.11206907855912
72.83342295462121
73.76910312653062
72.84575131294633
73.55775334703273
76.93198539989275
77.2677860911551
79.24495930103818
78.55937386831052
76.0597104103158
72.9626710855758
73.44007238142551
74.52633610381615
73.8998928474272
72.18455812007522
67.38373304907891
65.35617444104197
70.72854839211702
73.2002822518452
74.06516202849839
75.02128921752917
72.7083587649489
72.75617823840174
74.54974075689088
74.280127820435
73.3283355397964
73.90410023553201
71.46680956851239
73.0916123191875
75.6294359732799
74.42056527580137
75.46032768907916
73.57039322982166
72.71412699875538
72.37634424350047
71.4995329240965
71.13658328859003
69.6169582896143
67.83868065229402
67.96099412424928
69.02800917706021
72.49476617325861
75.39706856104372
74.83313604754403
74.37562747854275
74.03960466144693
76.15388432151336
76.21837738758745
76.02683014143385
73.41068636278749
72.21437198064396
73.55350632264471
76.118041057607
74.04123722254667
71.67308353065008
66.75802157942593
64.80304479876484
68.16774156187884
69.61489999085458
71.43060200068476
71.57913262509689
71.19914352882826
70.34333189267437
70.57686249313656
70.890598874725
72.14877483555165
73.13116663026153
72.34875969563747
70.72342208647505
69.92490742121332
69.1147782177474
71.2896727107691
73.10445323326059
74.64621939055232
75.11730266772582
75.85498389592343
76.43109341658213
76.0741722496051
75.87028149015879
76.34927379664765
73.60410742448488
71.26701607838784
70.88223244607563
74.14626562936814
78.28998921939649
78.5714584224003
77.59880706687721
75.93352206218476
78.47674422882372
81.92278153122018
79.83477455720595
74.83109275677981
70.11203211189493
70.76781519030963
72.84295188421996
74.5247117886961
74.99729025958897
74.99396121012455
73.9899062542001
72.29617208868422
72.25880845740981
73.86615814136823
75.09526114797572
74.93864177947255
70.78741751045044
69.80164357078367
68.13510532571057
69.08967269969075
72.39654147472778
72.44523744298479
72.44936497507695
71.53924989394244
68.8167733642847
67.5410814933009
67.19665236110109
69.63902131436458
74.00097055479779
79.13509107912473
82.13430309310458
83.21101029044564
82.7586631489744
81.22932062949577
81.75269938203186
80.32586580676191
79.27757760868533
75.95520587586859
73.98234715827867
75.13186408186897
76.20640462309831
74.85037169142191
72.67371224070479
70.95009543743771
70.775647746615
71.86663940176356
71.91462986672735
69.6107426377966
69.04349597361286
69.14979761701314
69.99360373684856
70.6615791752605
70.21677789996481
70.24038370936468
70.80351902387437
72.41632872325359
73.17958881483062
74.97578675114647
74.7341871098001
74.16320894992023
74.7006792598595
74.23312839596187
73.17552121914886
71.247855288588
68.86356900063757
70.85631405595669
71.75194429068046
72.23671327396478
71.77033345314456
71.79866994292205
74.90415993649145
76.11518070783816
77.10171004538188
74.30618223373921
72.50154685670846
72.66632420501028
72.07975632781913
72.8869165973393
72.73346651491842
74.7164236764292
73.5172623277304
71.88254117625063
69.0119301405201
66.54803040975153
70.04764326099757
71.18230935904845
72.86636605196179
73.0130689548888
73.11592372639339
73.64167031930248
75.37297553401619
76.4508360430964
76.06592798121002
76.35753517535686
76.89259507715455
78.92581487204772
80.51179947651613
78.42107391332577
73.47449423322549
70.30824723624974
73.30497657189693
75.39827662700007
76.43389297643861
75.50080521538182
73.93135833071074
75.2786849674703
76.99151938634628
76.25829931356073
74.60921720393324
76.27748337113995
77.55223043937701
77.91948190940661
76.55012045227885
72.47126166182103
72.69669185054879
72.55911973795467
72.60145092517297
73.19030716377591
72.27187974368417
73.82928336759808
74.47465895973599
74.9778561714843
77.42977812526959
77.66910926215246
77.03592823560514
74.47455909716254
71.37423918148389
70.93487491853266
72.68028428991319
75.92705304817588
78.76888583685073
79.24231965743131
76.71815316927066
74.21577506022385
72.12385321028607
72.28212457689519
73.00119200401792
73.73319739144553
74.67901987905304
75.853838617309
77.48405283831949
77.23277162844066
76.37185148463752
75.18313033627632
73.24589016772907
75.2718407407596
76.16354092392096
76.66734289640897
76.78195175599672
77.50450056292604
79.43141918845927
78.48373179098328
76.37445766138842
72.09535380264472
74.17551608192194
76.05118494704641
76.60345761104958
76.61647138878395
74.11637766265227
73.83752320577298
73.38576834642659
72.02581753563678
72.5835868623394
72.54450324453573
74.85025866499441
76.99843655348758
78.51547854637245
77.7819085889291
75.39283028877271
74.40218522554228
74.87780285551128
75.83080820945295
78.00898241086774
76.95187099138347
74.49838375013385
72.75989963614298
70.7181039579235
72.9057643235794
73.72543926406166
73.66211605292975
70.0335734663038
68.10838402836184
65.37229924300745
67.04637077035193
69.26038428223134
70.51552853215016
70.93729466345656
70.26129968545229
68.17509970838543
67.23411858062418
66.95365643659939
66.94808988610146
67.80027816923348
70.88817738025497
72.36689214905667
73.49587780469336
73.13198379500884
70.14822934670408
70.42935051512534
70.40333166660673
70.68799652193698
71.84529160663708
74.96214443061264
76.71963365565085
77.69349424947265
75.30038424667435
72.08426207800446
70.90738545767478
71.43480606888976
72.37923613566173
70.54452724399808
70.75762574572462
71.73649468404311
73.64297014550758
76.42466829498338
76.46300267432379
76.03671557807142
75.89061492668584
77.5138532051056
78.92797323773564
77.88137947653149
75.99821271266485
73.05686519198863
72.43521526548363
73.90377611178735
74.90461023571069
74.42490691277752
72.78920477881442
70.95915766985459
69.52646641219015
68.97141538897444
69.61377003581805
71.79452820310854
72.19250472491032
74.63475615608837
74.69998728851526
73.98364716909727
73.0899328782091
69.83498910678085
67.6165359898326
65.9535752307857
67.4501733156216
70.58862559411854
71.53749900040108
74.20483812630016
72.81829811837153
74.00650844985921
74.56009596880556
71.52385319537865
68.94633858374894
66.0289271512892
65.37672595163444
69.24843301607632
71.61100576015093
70.77043878732918
71.68810456864496
69.09514516957373
70.39471345820431
71.09661170644482
69.30442993807753
67.90559604538
64.5338706472895
64.85211528016532
66.34156959708848
67.59031037827623
68.80663975369615
68.37190659565795
68.21053966656713
65.44990041054123
64.78702491775653
63.15384039846124
65.43223308475021
68.00095781168318
68.89336072282985
68.46901955219212
69.36939571658228
67.15218273263665
65.70207803887642
64.0252193500564
61.474681719312755
64.39814236827014
65.50419739001879
65.9673312740623
65.49155260046547
64.74166347083995
63.912414543738464
65.19057151476628
65.60122113342052
66.81962616208425
66.22928232001979
64.17630998650296
62.49116090223816
65.78606385191877
69.2585300274566
70.28839667333017
66.72837202073806
63.316903051795684
61.81988632559527
68.51634858179652
72.93655718191121
72.05686805226446
67.91099122180592
61.39410107811351
58.48868482952361
62.223480245054134
66.26768886224009
67.5429955431324
67.55989458292339
66.65197339284842
62.66757227206408
65.73776856831034
67.57304434091513
71.36054355733863
71.01326934636364
69.28023127570714
66.7070392089504
63.80224929417709
64.89981671441528
68.8559848877021
71.44226728852749
71.35059710952254
69.54578658939853
67.35998120789611
64.26471632570602
64.49631028194887
64.8856041367479
67.74449195358694
67.5615407654943
66.7908042839675
66.0407353759625
66.27315118157033
66.5838393095863
66.37676119951769
65.08815356481455
66.03381689584813
67.48604358748658
70.3073856796946
70.15747462229557
69.35414252275291
68.68842995842463
68.11043271532122
68.52891627237825
68.36838208529701
63.67143189861641
62.00077209174213
63.11836997672465
63.26530961348197
63.74556512390435
64.09480329928893
62.62610060537003
63.674075693546136
63.110505136956235
62.243571676228626
64.90515906102493
65.22699139202666
64.64568340061078
65.13463143773637
64.85038360055889
65.01636415251866
66.56163269144501
68.70008559140794
76.2545241187069
83.56631453011343
89.44126793147964
91.65831858521402
92.76146815409236
92.7282768832199
90.59555313089902
88.63541780601656
86.18373155362141
85.56259882337024
85.83269428634034
86.59980266672297
87.92574589640456
89.36822707353514
91.88283892285483
94.1130849506998
94.96532046773416
94.90898437770907
92.8248037194101
92.71832416331374
93.26887741297637
94.69351164916989
94.73428514887046
94.66951446495858
93.64750529443006
93.42248554050552
93.05267238935353
90.21921098355459
86.71295724580852
86.2473780251248
87.50764206339349
91.05400569268828
91.04041838592106
88.61919200043093
87.24121096362745
87.53569397387382
91.3589810904114
90.53648427080387
84.23553892257041
78.84411990884392
74.87030224255741
76.68289796983349
77.98369040424872
78.50973088230323
79.24681385046088
79.77026772954709
80.83344129296034
82.86341659526445
84.61152790035501
84.20001487331496
83.97863636291473
82.91984703496833
83.375984898587
85.37752122598043
86.34921977219301
87.55519718994627
84.4157102695943
80.38736008241216
77.1361702600429
78.19403356123082
82.79619633238238
84.07613627712685
82.4035624690786
80.8506006666105
79.27200238054448
82.25274473170866
84.4129019638394
83.56879172622418
82.2559070092268
80.4593158797785
80.99810111239282
81.92848024211582
83.79343627682697
84.86400532855592
86.40464965668697
88.72941329094715
89.92452117945001
89.42096417430389
87.88090572557905
84.94123521042997
84.45950180482158
84.4011510804657
85.69314847719065
86.03501561038081
85.51045754461703
83.41503746990057
82.78268617768927
82.50627901394658
86.46022845466938
87.65729477381095
87.88963911341881
87.06802327350431
85.09687591390842
83.90889478704845
83.40448340524
83.2897935886568
84.477520877309
84.84880482897884
84.28953716306958
84.34119025075066
86.40963091980684
88.49864949740711
90.69268619209305
90.92427973916396
91.15626760588371
92.37979496101555
92.55254672967648
89.97871122431762
86.32323652099606
81.76385747651321
79.22734497909363
80.20393502952051
81.6979064161395
83.73872934160832
84.50550819198955
86.05987519926138
86.18683306029553
88.64917219283925
90.01158404702711
89.67322053887747
88.99519367677243
87.75666793256562
87.88847271627351
88.70190576588116
89.55909042807019
87.8253801734531
86.25839597139148
85.35422413042552
84.17588611455531
86.5919696666108
87.45763809548927
86.67421940888634
86.94497721964011
87.98788749486249
86.46956476518183
86.66681535065825
84.4987753024175
87.09307705965335
89.88915858508497
90.6530712747657
88.52947317167065
87.64299415846857
87.9272528492345
87.67822489824971
89.6304116070934
88.83879003094621
86.83888141954317
86.34946519442424
84.45363060954864
87.09401736615169
88.61877381859031
89.21911944646313
89.92098920050033
87.44608445267384
86.39029610841357
87.31443783877046
84.63759040659957
86.42939716640635
86.7117333715556
86.8850607218298
86.78940195899143
86.81939167328106
87.54687114601951
88.09138895932034
88.87811440629262
89.00234267523713
89.15191461048656
88.51053934339218
89.67484742962041
90.64835086347831
92.40574352488616
92.35844580760725
91.95224633569269
89.60111841588993
89.68649063894888
90.68769065469313
93.65416449389905
96.82369569224147
96.70249552973756
94.87557709721675
92.71889557282043
92.05214752007848
94.72040137961106
95.730227049405
94.72983349861532
92.52971871405379
90.7581928229435
90.61233226431531
91.54613089319747
91.9452327431448
92.48321332682944
92.6524158322797
94.2392910605767
93.80126301556497
94.56369601573469
95.95482736434528
94.10798610978988
94.95871744642531
92.8640122110494
91.70962569346223
90.41581138446287
88.64997818296871
89.60494425585784
90.57813825320041
90.9044850736015
90.50482648716962
89.80125232136032
89.02855873152112
88.69635222650105
89.54547546299916
91.47510107023045
90.98548736909312
89.79931457534717
87.83687569849445
87.31804826975794
89.38881675722597
90.15119652110769
90.03814218174107
88.92247740175749
88.08132368348161
86.86810032316924
87.11779834881328
87.65316747270849
88.13663173725209
89.33174211555371
91.05206862101895
92.21678486323366
93.17123280299903
91.61942348829872
89.59936608256454
88.17046100731321
87.45024298993583
86.71530052933993
86.91592301721813
86.4474162025158
86.64726170827512
87.1183183822328
87.94264308888151
88.47231419978736
87.58251461409269
88.28936174756869
87.91105640111049
88.40055586951081
88.48260684840012
88.59452047074598
88.47501476095815
88.57399902791562
88.10418328399984
89.08844717087962
89.71137627480675
89.82037128485675
89.67584412026486
88.2165596129623
87.19692386699514
86.6905260542699
87.06854893351732
87.77955314194726
87.80090055790018
87.52482500559887
87.30951404825619
87.06741528457182
86.56641952165235
85.85060314093349
85.91827722615832
86.3861582094325
87.29052817888991
86.94764882958837
86.74865129744022
86.43813439468241
87.15110102997791
88.61542333815306
88.91231024534304
88.29635599298057
89.06684512068182
87.78858670807594
89.35361260537799
90.67125214254905
90.87548557473261
92.66493400130287
92.28539176600323
91.93831340235442
91.30677405413195
90.46873818869919
89.94961642327799
90.3058431073847
89.36606621863939
89.43256601150158
89.32427965483281
89.43660217027872
89.93641044160965
89.37071449452039
88.85998990377517
88.09651730575499
87.35994453615706
87.74107405372307
88.20749269772563
89.1946140155877
88.95844541367279
88.72037166139738
88.83925727778188
89.97483422566891
90.27964940483854
90.47785543623638
89.01158541745248
89.23279217484101
89.78939104254067
90.66363937900904
90.2492356513504
90.09645187762432
88.23128081751409
86.94849607676377
86.25650155659851
85.23823400345529
85.20638360732701
83.65470713358735
83.78650467483233
84.43150858116802
86.25542486280771
87.64936825461054
87.54452111327177
88.00955449031713
86.46615582986854
83.16524080068822
81.99208717022371
78.89062188339483
79.26282728717531
80.49915513092103
87.76778748360456
89.26769979098007
93.76250292943763
94.1702275012953
95.1963041299807
96.03368932776694
94.62129946493307
94.64208506429269
94.35715200862296
93.32585811678419
91.86932213587697
89.80784649518326
89.11874597149584
89.5710352500667
91.95205331996047
91.94078000604044
91.42214615208032
89.68281428305045
88.47382656414226
87.84075819607301
87.9853163177588
88.63130590173033
89.76555204947853
90.75227313967666
91.90851272704798
92.98488602348688
93.94178037669171
93.76134103319683
93.51314613563227
93.02721653571074
92.51382333092592
90.9216082724995
89.68055507546784
89.34687310657844
90.70366355797073
91.32134558164917
91.74690324891115
91.83905068118294
91.76452671112466
91.45997313949681
91.06890751625753
92.02612259219431
91.69532070424731
92.16298530732861
92.48909043735809
93.84659561333818
93.06394563994067
93.00512406163728
92.49484074697588
91.92961772712259
90.10922481552016
91.53031999090204
92.44686506356182
92.36955024604733
93.12279650209122
90.89025280922144
89.93446882240826
85.08889200639574
92.35379940139063
93.25778270688907
92.57664005247312
90.80444652073693
92.72291105323434
95.88842579184717
99.79750092378958
103.12138631995577
106.02716560782815
105.50837430544198
105.95381700922223
105.31808143524806
104.50627750725585
104.26625216289236
103.79378878049768
103.63178383283713
103.80109082676894
106.04815699167236
107.589546326801
108.73117195118992
109.98432336742182
110.25284252879194
112.62213627423934
113.63647101072036
113.09890173736018
113.73628960057546
113.87269242655465
113.44401018216493
112.27933976201997
109.02978560939896
105.87889313218373
101.21978665013037
99.84153452518204
99.3669610207412
103.8963538356848
102.91618074457712
103.41207916757443
104.69862666066841
104.93400812399214
103.64821264414606
102.67123037006769
101.81368717697389
102.48042017523743
102.1231252865478
100.31161732867155
98.77278696318245
99.08523305067139
100.16567830344519
101.56052205523436
103.68572148907978
103.31264314594561
101.87653517172086
102.25603722316282
101.88361533822942
102.84168051484954
102.07987008562453
100.58519071124273
98.49149619064775
98.25423232784546
96.54299196729762
93.83605468909307
93.47884998995393
93.66135810922081
94.46230221472716
94.56433212625932
94.74381421532168
97.32521646340905
99.70609504477716
99.68919626653958
97.10128565545419
93.76659469043594
91.78206072541781
91.6309669376357
92.3543807088334
91.42014544067304
90.8258930103126
91.44194255170054
91.5965071284861
92.0776000341116
92.13671642793234
91.71686241419734
90.69819587247031
88.50119947623854
87.12660001096793
89.00313423889237
91.62198301540411
96.14408794307207
98.29328246770474
101.42236680755968
104.2008066007844
106.13218421706485
108.3534212776669
109.5053080239751
109.69204769612733
109.0811725882667
107.72271403198864
104.30590378954032
99.97841587904736
95.93241285582272
91.59550832854046
88.7553896372795
88.04306950215113
86.56061564010402
86.51560466334352
86.11317674055505
86.21479302775882
87.0756852442253
90.06311819568083
91.49422888413147
91.50475740484676
89.02328757939374
85.5086635301395
86.09068212331908
83.3882902670487
82.4593234498698
82.30621870530265
84.10439855777719
86.62322486332451
84.94014225934173
82.21478434661337
78.20279681835446
75.05632168419896
72.40458885105753
71.9235720428419
72.73040044811532
73.9129345838595
77.64353148027365
77.13599866212616
75.85736592366015
73.4583966235056
69.56998408181548
70.82294461163997
72.86828838057176
75.36973880283632
76.70688025131095
76.453966572776
74.83499878647825
72.99248453367663
70.19416858032926
70.15199125998062
71.01586893271474
72.06812450058266
72.28073191284302
73.15526261334705
73.87933583129308
73.48360717566987
72.272360663978
71.88158820513692
74.91641668841756
75.2556647890074
74.39035808347597
72.6169765668534
69.7286889069667
69.0254742475357
68.9388808356943
67.69402857051196
67.20742207484442
67.16622344258953
66.66581173975112
67.00303674126657
67.15383227157183
68.02994514948048
69.40640408972334
70.24699476999454
70.11170426135861
69.56757067388878
68.11317000639224
68.53323149171604
70.42671570550723
72.21611652552318
71.45546276980212
70.43056876350593
68.75068523147132
67.558898493074
67.17939046538166
66.65573729339062
66.4212906066638
65.66104913896757
67.77359054664785
68.54701319350993
68.62688641062562
68.11016526606441
66.99872198148782
67.1354892400949
68.06286194058073
67.78908469888313
66.83504499875845
65.67390243373708
65.38968399672717
65.74602766251661
66.61153005595045
67.86920674274866
67.76599100365367
67.27336175649837
67.29452427291807
67.57116317067648
67.26338317099582
66.53763907712295
64.57207390889695
62.96830142289807
64.08509057064471
67.09724305372373
69.198791730973
68.95989994136866
68.11467256636183
64.86899092568993
63.25612826867667
63.55643111276447
63.39127033635195
63.775588027593216
64.70235367988629
65.68267675992747
66.00310799927672
65.63951660674643
64.78005700019673
64.1936169377315
63.793236122002035
63.99294333962139
64.36829144471575
64.506458793008
63.388851375602705
62.416016843962
62.47354360103977
63.51347734283954
64.52780578474025
65.33839859914663
65.1112531533458
64.11991149577185
63.68242545775188
64.1475612271116
64.38329256825415
64.90243364888912
65.25526443684701
64.59608593419662
64.14327901494585
64.22933451196025
63.73195843246147
63.89927801106717
65.0921246540771
68.29674606438263
71.44447785314486
73.363969674981
73.53130296223179
71.414823262134
69.46768237846199
66.94489025847614
67.3615569251428
68.26535939357787
68.49949017043838
67.62069418317233
66.05900095003568
65.0286329870057
64.74599586135189
64.8440446896684
65.12154512899079
65.14594472465464
65.17174052509831
65.37033464045572
64.73995275991872
65.00467397665079
65.26477218639323
64.72953705062997
64.43400666045883
63.66378643250722
63.93904846295184
64.39826273403726
64.30114818259385
64.27837585768496
64.56622555807401
64.77781191027611
65.08905655686819
65.8828647001606
66.93323678296733
66.93339813544569
66.93824319962516
66.11067678280548
65.07394281688912
64.33248716862326
64.71821613483544
65.35044874598422
67.93395733986262
73.87816827605518
72.30496702777921
69.35141053636727
64.07741998462967
58.970813632004216
61.92673483561847
64.29790661717425
65.06089520708329
65.4354009563069
66.08947378638197
67.31341022811445
70.94757831239325
73.48254954411013
74.18928236741003
73.43393920258089
71.18375021234041
69.63368166972037
69.4127150761134
69.54159863084458
69.3172249934658
67.54136157509132
65.28892768601948
63.092923835004285
61.350131512907126
62.01355062712019
65.44245103018498
69.26951015685984
70.62482947774978
69.7625914896627
67.16596422716194
66.00822096435743
67.49012937943668
68.83613292338235
68.32183202389288
66.82932137972965
65.85926815800903
67.23301698813296
69.16456906043936
69.58016387109302
68.95375525911639
66.31332755404884
64.42124197000136
63.25651417150845
62.207738803397824
62.528969273616575
62.477379687568195
63.86469257655109
64.51086660394549
65.49185026026473
65.92985276208343
66.0781513167434
65.40907250251371
64.96259406545408
65.1052793432893
65.57138936631097
66.61606795953101
66.7932733702978
66.48181600696131
66.05703512563156
65.51713468296431
65.34881867991514
66.3280160017221
67.05343314219313
67.19809387685231
66.70089906973094
65.70830721185301
65.8039288372807
65.88037865039426
65.53093906844218
65.01050840051542
65.05993207936224
66.01844189329572
66.06885027291824
65.1463680834446
64.01789766814204
64.12484242224293
66.14733232011764
67.78488207077173
68.0102158040204
66.98966827415941
66.11652725320879
65.48606450371541
65.10910736176628
65.49825383069049
66.14438210376255
66.09897420147189
66.29457536776907
65.60546134717545
65.48569338381975
65.14345754636886
65.41668739567064
65.79671452123263
66.10299845855076
65.48169360141634
64.5822453935703
63.93044339777806
63.34092318787858
64.31664088421773
66.54825949797149
69.74760552266028
74.32710223897878
77.9155942102734
81.11702548698466
81.0184368869445
80.74197022666434
78.9371339484837
77.51154323547809
76.03729792433843
72.96617919503709
71.48339016693959
70.12453741123093
69.39152884046334
68.52205022155235
66.42153473854583
65.78047093286443
65.94369508938345
66.53294974260146
67.81291893043174
68.15285148781237
67.67107093466579
66.84170734293494
66.08685486792879
65.95412001404037
65.90845359555107
66.14316636100932
66.32661061078149
66.92781839533822
66.63104978594244
66.36237273697255
65.0465482155064
63.48090895504529
62.64073273358213
63.34848218453431
64.47774562318929
65.06485126365814
65.84735462710313
67.29344512245211
69.43855143676089
70.42171929294997
70.9915008076276
68.86845340025711
66.17836817514296
63.19743473754417
61.4192801132857
60.08198562373007
61.55917157924995
63.39946514591431
63.898577300439044
64.23022094825674
65.71507460909729
64.72129228204389
64.1203283763533
61.991297594544086
61.18980680010317
63.02722178423878
65.53494997598368
69.79271918512273
73.16666173023086
71.58982226853587
70.7059451035463
65.55383381661152
64.69669078687765
63.633279936822895
62.89928344244501
62.00897521397186
61.80197608500354
60.83143436653313
61.697368631031374
61.26464093587195
61.80607717345715
61.82504632052961
62.42060677754398
62.948054136136136
64.58165310882035
67.11116445763103
70.49903109968858
72.09253158939296
71.00473216252243
69.07338095329779
66.91877418180252
67.52443367656198
68.0243491259367
68.1812452787382
68.82373101256151
69.38328350085844
69.09636409217066
67.77279991988695
65.33845084835707
64.38726726775197
64.94901811755378
66.24618995872088
71.42109481014464
75.67108670609281
77.27139699798724
77.60304956593413
76.00622856863401
73.42239432999969
71.05296137791339
69.25478672106854
68.01128214699995
67.40698889026103
66.4017007025249
67.08793744714421
70.28629624100232
70.97685673540606
72.02367502177626
70.14081728666656
70.14768731285649
74.32056480495696
73.38066472003055
71.7738027477408
69.10953754025252
66.61252916620376
69.17833660144312
70.45713036751401
70.21236119028084
69.77894341725379
69.02015244789844
68.14704768371
66.8623035506129
67.45996701091092
67.98054887627254
68.8671485691221
69.62931165129737
69.78198783349255
69.92942439404996
69.90166298298305
70.09461218690737
70.01983651392632
69.99171066694095
69.961223783307
69.54573479507684
69.64711022744648
70.35663573251577
71.39169025546678
70.06695207699111
68.64065968610866
66.62771018417136
65.90835634657823
66.77249931058142
67.57463873139868
67.41739543108645
66.69277395312041
65.97258764296816
65.32338846755746
65.18038274732865
65.86498068477195
66.90063380927606
69.05961128168582
70.18240561666146
69.89890910323993
69.54343255667378
69.51692626315719
69.79193831243369
70.83055706525958
71.63292298381776
70.81409121102557
69.27238736019024
67.9218189354584
67.93585685803559
67.88108703626477
69.17071693482502
71.06868521563723
72.50446856843445
71.12747958561677
67.91953908545503
64.93203093827378
62.1387948987198
63.610625484956024
65.6784332521292
67.20376550861465
68.62800554360666
68.76118957386255
67.65203984448378
66.5519108199513
65.83958509171451
65.81070343351952
66.20946407972065
65.6101643410677
65.73512011312815
65.7214844578375
65.98680332358805
65.46998639892885
64.27662985703881
63.50952452659053
63.28516563534521
63.722748568032564
63.99071704564922
63.61002433208895
63.04033941224134
63.23486454185076
63.740316100050904
63.75673429715105
64.7938009659614
64.57877803018158
64.60470049570937
64.63962986077114
64.19551802116406
64.65643612631943
65.16804750958042
65.2067856767436
64.41912399077685
63.47317131360657
63.26175662691095
65.58347317321768
66.68766408355502
66.402011931623
65.57725604719181
63.12426639131719
63.02009120232121
63.81195833561291
65.04130252279869
64.91914618250352
64.58356652000077
64.10752506348659
64.24348882864743
64.86701878030769
64.95301973587387
65.11097550639045
66.17127878796782
65.85947202811538
65.42908783438627
65.41880762174983
64.95296054627256
65.7461566430295
65.70612999392984
65.98453268062781
65.62225762128597
65.28092670665343
65.60979454015273
65.62153569703933
65.58570971861869
65.3834416591177
64.49516900878886
63.699177196243625
63.498301206742745
65.04974235045823
66.37216761966766
66.84414291786385
66.14279658163353
65.92988166501661
65.85980931037196
66.66664399646548
66.79651390037995
66.96499497865886
67.28367395133284
67.03084578770417
67.0306805844373
66.6917170182887
65.65390037008082
65.41049771088252
65.53168367208448
66.29502101501193
66.62063792588785
66.51513121290789
66.21789816342434
66.09948130225058
66.37254631773047
66.74353186474207
67.21077493434429
67.42262255879425
67.66565791339798
68.3156637152652
68.43157759227736
69.27910024818729
70.04529832842097
69.54331584972222
68.090629352674
65.35069646058717
62.32324474655032
62.53776740911461
64.00524715725076
65.85240506167345
67.0166420334153
67.74147445968575
67.24161318771041
66.54740764054341
66.52991377659899
66.74226181503397
66.90948483097594
67.23982938936172
66.27315963805874
63.83381788024481
61.473043975535965
62.102378126544735
63.04765366018856
63.989626692939986
65.23389779223793
65.14718064292781
65.12375316471022
65.09031075158403
64.75595280591168
63.89116367383316
63.33715705580629
62.81938689293887
62.34889386814338
62.21478823380777
62.885190919626794
65.38910046386721
70.1028052623295
75.84033214550725
76.05297024025043
75.05672234272166
72.27990259799233
70.41678313238
70.42666520179463
68.70951983982908
67.32093056064745
66.40524376646589
67.04281661582442
67.83281233332919
68.39956858244267
68.1720507297247
67.42155681923657
67.40694090396124
68.59131069018473
70.05144371878986
71.38931236942341
71.39242241655742
70.15267549761015
69.2361584689199
69.34271766320246
70.08972456353187
71.14856157839162
71.39694188830345
70.87880590885032
70.03945064205196
70.09559847252643
70.84434670740075
70.84617361149178
69.58300153573944
67.97092377806653
65.65312364829467
66.25400179488153
67.24343878625272
67.80740634342608
67.94998434346118
67.24585554121263
67.27410392415106
67.38622941790408
67.56302234137381
67.54559912984502
67.10786078249495
66.52652308476137
68.56032594048085
70.6129033123887
75.8525621722403
78.20121456429341
80.56477917782895
80.5405138482673
78.38003410438375
75.24131555372459
72.5485673291047
71.10322261276428
71.70250459211094
71.85445946731059
75.43865416305444
80.43002794447716
83.73466392146409
86.34669392838526
87.70926588948515
87.91500536115421
88.84969319409271
88.10090976388284
86.90129705627314
85.2126930787414
84.50731252526926
82.76375284894812
82.93877499071533
82.81382539976622
82.31194729120008
81.68200370779749
75.45015933233071
71.82245972841861
67.79269079726242
66.00727252211081
66.92995946087477
64.4794601656587
63.78834280588429
61.06276810432718
60.677975323523455
59.13998824203294
57.97428563805581
58.65578997194276
55.52845269924239
54.622105221866796
57.06369305032757
56.05808739481878
56.52935243937767
56.00370778076063
51.665300399169226
52.758089242797304
55.31254013444084
56.55127992771588
56.95128999560747
53.36921811215213
52.69726218315363
53.174528357532296
52.69265110479339
53.885121863862075
51.05057925268465
52.36863935540546
54.30987366696913
54.20314717357979
54.925388004261414
53.34071413586437
52.25898062945367
53.808422346474025
53.09325844753206
53.76908681009306
55.990985594861634
57.623034021884735
57.04841232259908
54.7963378557479
52.43090485571435
56.08674519262224
58.722078496458515
58.36060369804394
55.883497071103875
52.9820112142917
56.28307241121404
57.73572602094203
55.31290170551875
51.55222898945137
52.88861468063131
53.93116515591574
55.30333258548682
54.45447717265507
54.04861298689425
54.632437139158725
56.98333867125335
61.43334230514021
69.52242664325532
75.47562181698979
77.52451149677609
78.71494482484027
80.41395445781156
80.85300687756427
