70.92296570347261
71.29105527689472
68.69383264050381
65.67944543161127
63.81722346951357
64.55105182750872
64.51988844657538
63.26307173820538
62.45022874167456
64.31927617760769
67.26231972558243
67.99913268885402
67.54668090825311
66.87770305145209
66.5237924318921
68.37588977849349
67.73889205141057
67.56874005335753
68.45457237681242
66.86082255230804
67.6370103690081
67.99775431755867
70.76970911727456
73.30970161363507
72.15495670437741
70.2333801503863
70.01696851231705
74.49928841920541
80.83739783304631
86.7629609140099
88.83828821802534
90.34398002301208
89.88097464627604
87.54665374169144
80.46890675336802
73.94788559363873
68.60355040168861
68.94155984286773
71.01004917384165
72.32902391620455
71.89075955331947
70.05528356424202
69.33584262456405
69.28368442331876
72.88964634137425
73.86785921372135
70.81088822718995
64.57908558024293
58.602888319270434
58.04637664664587
61.94767094285858
64.5981668278207
65.44809208980652
64.93903161680471
63.53886502171965
63.84430276111171
66.79107647442531
68.6806091324231
69.6802650675193
70.25915126430738
69.45137317633308
68.92859208913505
70.05910651176131
71.71022017664484
73.03239242641365
72.26395504281547
70.31653697637094
68.22089344451751
67.56248925791004
69.28755244111177
71.27218286195195
71.93919891798129
69.639403867081
65.23746138309409
60.20189700322646
60.941940517426424
65.22994698078244
69.41202947636964
69.5774823117883
67.80767591939674
65.63507868283031
65.46123821275381
67.53927184900799
70.05839492536488
72.71664694462228
73.35515047926583
73.30063400212575
73.9437382884549
75.93205774078648
77.7488989032303
78.36679695628133
79.22759031266045
79.0266656267226
76.89185572838643
74.6631513896133
73.56672925303594
74.61392073997642
74.3757543197877
71.26593378803528
63.54235909051611
62.99121639467594
63.62717429905711
63.94213602081051
63.55966892402712
60.57717318917623
61.579901993926626
61.2906454478317
61.35841094824447
61.23960560498093
64.86671642928853
69.18673157586574
71.80338913021534
70.34181616370816
69.27177660217441
69.09664002734345
67.24688060048754
65.60755347740435
60.69683048709637
59.41238280847966
60.379896324392625
62.48185497677821
63.58450825888288
62.41637634481905
60.754940735895666
60.47773483551107
59.85693835990403
60.874709991428226
61.2012553588839
61.8175168027539
62.98151444163222
63.36188535110374
63.0725589996797
62.645826518576186
61.20287505931468
60.79909112826476
60.42447473612758
60.43217974788526
60.693887836806894
60.76557065531693
61.00338130092856
60.58162424751676
59.97530957346078
59.63370512005901
59.956671190861634
61.4676077450621
62.64780893565422
62.88760897026689
62.17590289260769
61.51165028921043
61.43438888790847
61.919671845247535
61.865861673523774
59.93328539456444
58.63604471634902
59.0012461975104
61.384720914554045
62.69578726882519
62.94181996723579
61.39342275883151
59.630834160487105
59.822197263424634
60.70664053797058
61.10529764495596
60.6482495123196
60.1649292747852
60.14697794311929
60.544862658353914
60.959897212956356
60.3431121300029
60.233048285394
60.41159265024213
60.4575534170309
60.07524637117361
59.87862610924414
60.646124246181344
61.54093879586593
60.74309053004538
59.436800827645975
58.381371363104996
59.081515170082696
61.20935185765997
61.66766031801968
61.58191415453711
60.507768288643895
61.31776990281527
62.58703885332583
64.07241480680659
63.418321887059044
63.833039649260456
63.96495634985779
65.79936510294986
67.12409179380596
66.73430893616039
65.21572904459859
62.05694279739964
61.63833808238456
63.06737099620268
61.90564700778353
60.980470667184946
57.45701101960964
57.89526102323663
60.75528418431605
61.19842824050796
61.556833007789464
61.66089503928338
61.490915838431384
63.41072784626167
64.82057824490893
63.72495018137501
61.866127704902006
60.56938157942653
60.23452084981185
61.350294862261286
61.185368092644204
60.77732856908967
59.57965690516488
59.0838153890756
59.42256180713513
60.248142883301306
60.81928828497609
60.5929192717609
60.09500729444384
60.48689753241127
61.40902249115389
60.265746164451635
58.92521489448331
57.526299758327134
57.128136330813845
60.01485852176524
67.41330046025708
68.23166553067722
67.36456321754477
63.674342268114884
58.519592306802664
60.77024098935845
63.10146654706388
63.77153468439154
63.510067729710336
62.368323215247116
61.66439479373586
61.62892251332681
61.36987433036479
60.874585236421964
60.63483775331371
61.728445523981556
62.053139325484274
62.52372516799885
62.052791434851244
62.38030083170687
63.09696993726451
63.602522407701436
63.34003657579571
62.10563356682418
60.86589654774629
64.05588551088738
68.15361567489995
73.52140556022651
73.95208974056267
71.1842835905706
66.35421763567531
63.50575584161941
64.52849025524645
64.81213549272367
63.315243214150954
63.24297086438517
65.01684887362566
67.12120327635783
70.98004068232815
71.524636862878
71.9126242198725
71.52334897038003
71.73382814926784
71.10970063303157
68.75553866654519
66.98762073654123
66.08904312084864
67.27663010244109
67.27758240100287
66.18805061701372
65.8717457560462
65.44730024110468
65.32916364567743
64.70617176392521
66.88861335188714
69.34892039291378
69.52393886104477
68.2208700864505
65.79600241233027
66.09429935938007
66.00129011160342
65.13761775581297
62.29994693320325
60.91272280868581
62.420457943991906
62.422011356827866
63.915160472026685
64.04180047819102
65.13270745887851
65.69104940329815
65.77585464795179
65.6462161740862
64.48739490000051
64.36438882000087
63.12774284934395
62.03609975299679
60.14804513049939
60.03646976462902
61.16140857468084
63.791730640539306
66.79592949949878
67.16096249913853
63.38898997657464
59.47735189753413
58.0004184232089
59.62187077558492
62.290791336438254
64.38522372416918
66.00853381954744
65.90317467622829
66.84371803746285
65.75106747213215
66.27901968681594
66.4411810450498
67.35402762954266
67.61671383084968
66.41912809640502
65.07175962554615
64.16631381392637
63.638106050693914
63.40917286105848
63.62879949080406
65.3610184247344
65.07086604962407
62.54526417976734
59.07798732600684
58.2500024174525
58.724133551479675
59.381767372606966
59.53090722505069
59.86201570963635
60.70016508240938
61.65478079549483
64.24577665939597
65.32877166649135
64.52272991488549
62.79208975620058
61.43315942279097
61.82203588448844
65.4095048052242
69.78058160023048
70.52521340003727
70.4853113587942
68.12812819045266
63.49843947051912
60.51094994678998
59.43273587159546
57.061074121064784
59.70394529910299
64.26279095874801
69.14427423088884
71.95587104179964
73.42848488432129
72.54691340821239
70.13306665715547
67.81535651600583
62.873484755145675
60.05052236320156
57.1737693242635
58.78352052008284
60.51815888851575
61.846073412757356
62.29026581478977
60.697511061738844
59.94170867925105
62.33206033424142
65.65165338362846
69.71137874652504
71.91295122300181
72.59051719220683
72.02459726647513
68.01893376750829
62.07754460884
59.72586008588252
62.72098093993949
64.86770651573184
65.38698674195413
64.6698330484388
64.85609785810597
62.38004155391925
60.14195767482169
57.47630510588572
59.865234555863196
63.77428481423841
64.51236191404736
64.45144581871219
62.151938096590825
62.020891270497586
62.624270644750176
63.73817915374477
63.68198927691298
62.86634281414307
61.599431676943546
61.72365664879886
60.67171638365213
60.04444285973754
60.42049917714205
64.89562971529983
69.51160183053821
72.37336021754314
72.76351885829995
71.66563057800275
72.32103796969128
73.58476523784324
74.70738542420958
72.61650366287233
67.23687098998259
62.32390255530291
58.60824758549495
61.67010255394304
64.97908031387968
66.40357176663272
64.05630088662377
59.6195490923217
56.855197266880815
57.47714943417218
66.45770787911903
72.2554628547461
78.19794383083612
81.23869851414727
82.76601253973209
83.07479307142206
80.91000088098558
75.3776964927345
71.07667441919688
71.22796832993728
74.87007670454942
79.1452324597944
82.12857899661243
84.41070141518206
84.35710430445741
83.00954403347421
81.41826376909263
79.92854751712788
80.50253721253696
81.2885784424663
81.39862970598524
81.68195441676757
82.27049266372111
82.70048525692955
82.27721834311498
81.05836625541171
79.46967707750841
79.3203430762109
80.48255098372016
82.98997957007464
84.26556820091398
83.91811787065615
83.61054611693767
83.64913314297792
84.96981459289005
87.5328804981327
87.80872699110245
87.30804684374218
87.0892091815159
87.36133753584471
87.58097188522349
86.41529329251283
84.0593327822463
82.37841339875561
82.65420297363536
82.80177749050367
80.91537051380762
79.96424815173847
79.20194342736002
81.43106498832616
82.31254141804729
82.60569530350743
81.98887805872795
80.8321638677374
79.02632125720677
77.06162726060893
76.35785281328015
75.85876618449124
76.5477465635973
77.23283641901179
74.11186592550997
71.4657027494606
70.33002137362823
73.55241280012885
79.77783490262908
86.70083216943681
90.22388640624332
92.43867584500668
92.34235380373335
90.745219522939
89.91286746916681
91.35459138744027
94.33161352443945
96.70159703145289
98.59265689906795
100.03318942256364
101.80125712752984
103.82365802955636
105.70852500757434
106.41438817070677
106.09040377213117
106.04877792607982
105.73573935953468
106.30068350456253
107.44093912907333
108.43937685988953
110.42264556965473
111.92872241702248
113.19916587471491
113.74494787289662
113.87020974492546
114.89408357918781
115.82402036859332
117.06018889743883
117.72166377374697
117.67966519467079
118.37234472483091
119.60331806242264
120.38756660275558
121.51693852763312
122.76528223612895
123.60496005797502
124.31905245426535
124.5689453858858
124.3383404193483
124.4940485374709
124.9358552407968
125.13064106227779
125.4571771156836
125.8110518223443
125.92906791872343
126.64499444135278
126.77746300679783
127.16288781035416
127.52051704928476
127.42232819841647
127.37530049243509
127.4987403426933
127.17308613227183
125.47226971428458
123.23655341085963
121.04030693877779
120.07710700172991
120.2366667470856
120.05711861997102
119.25137545646399
117.75236126308732
115.74616668837773
112.83962856560164
109.59363362809582
106.7265967872029
105.16541770888298
103.56076420416062
102.44342354559933
101.26859404266044
100.1429854527912
99.44608984232867
98.3458387555011
97.3522708680821
96.52074085528794
96.46745736805008
97.20786610569763
97.3892571311818
96.55120181673139
95.664308513141
95.30094330174671
95.87290309665376
96.12659986630032
95.79936317365389
95.87027096240574
96.27523137719818
96.42207806286022
97.429549290731
98.10644896725988
98.73332415266485
99.85504751810876
101.8989948266129
105.02635766854839
108.22118332045271
110.79929212758984
111.59179525048681
112.43636571220146
114.19056167489352
115.52062453676075
116.9262050084972
118.03108906135925
118.83618746870869
119.65040474196516
120.4429807192112
121.39950737048424
122.18209984446393
123.2114179113007
124.20359323688007
125.01133047622108
126.35847222440549
127.17174725046581
127.93791940985398
128.74591835950693
128.9886378480582
129.7430429607871
130.71800073591584
132.2430790580824
134.04975262698758
135.49853682209343
137.30568755350617
138.2262095999252
139.00235105349753
139.5445903162769
140.00774439118626
140.9516729688879
142.07324327429575
143.2554943521955
144.72674304817428
145.74082643608457
146.54102786785353
147.45513403856486
148.0004371771951
148.47176029234524
149.1644928820367
149.24818267188235
148.67499179742035
147.67803288044877
146.21716891348512
144.70435811323856
142.71243918822415
140.40992514363523
137.32036048207488
134.39291285557107
132.94411376167812
132.62458306989015
130.86346046560624
128.13286806347466
124.76317577275044
121.828395278771
117.82332159519471
112.71812643365274
108.17059936364186
103.82195368765792
105.3621616607512
103.10203542496548
99.87099406959612
95.86215356372925
95.65558671217086
96.73817825408833
98.30883701286149
96.23798379301952
92.78372469662514
92.74520469871474
93.33722370127572
94.46985567438196
91.39736853257949
85.91038866645027
80.91592372750434
80.86919686389055
86.10952769232448
88.03500487304821
87.24335359481911
87.80456683778917
90.42558367614915
94.00446759912847
96.4110463513369
96.37644190025897
95.96883143356864
95.30344896747859
94.54491167304593
94.93245884002977
95.69431479422998
97.01907784804922
96.8685045346851
91.6266103272075
88.1684245297446
87.28675421552354
89.17010574365881
91.49484415101054
90.02317844046986
86.48650737939872
84.61198475258082
86.68992422143987
90.54942162469465
93.31414286488354
92.86503072468092
90.6640159983823
89.603531773795
91.36982326472811
94.04990407024893
97.18281954850876
96.92776911262827
94.11956524191915
91.95372248596301
90.448903721936
90.41868040324432
89.58705490708175
89.21163351821495
86.6833251581464
87.79855494698603
91.62953662017625
94.62766522032906
97.13988386238456
96.0615597686505
93.59013899065609
90.8648769708411
88.3610153104769
87.58890703885541
87.09479905456104
88.1713996602233
89.55129027635759
90.86827437515272
91.51869294517377
91.93006364254742
92.07271287454343
90.96880082814684
89.87446624445273
89.37901814399844
89.64844804676734
90.55060935700004
91.83250431049186
94.67890792257361
97.58593100594805
100.20650838370568
100.51700083672414
97.71130058219768
95.25016490223334
93.66300357516421
93.4900775237094
93.59374415510716
93.1964261470978
92.56537037388435
92.13981897242071
90.3483219712143
87.38973171776183
86.00217836356495
86.78085138059059
91.25061255745163
95.15984949971111
94.36847806100837
90.514406296331
86.19027605539996
84.70865246663142
88.90414949398331
92.6252843128613
94.179025604335
94.01696755371493
92.48458515249368
90.99573368837693
90.17105298552632
89.25361601802467
89.1111544866177
90.51278484485161
90.90715458231351
89.69937136196081
87.78823976859645
86.17047251660361
86.58399265195672
88.47291913118636
89.91360638040095
88.25795065519925
85.07475952558185
82.24364096042302
82.21911584504369
85.50118945188228
86.91670466396977
86.42172369804344
83.22155250737367
82.649730121024
84.55326104746788
86.72096173231388
87.03400561482175
85.15988064271025
84.44377633048357
85.44855877275793
84.02034016855629
82.5383694399524
80.61271368019392
82.15518946278043
88.48862717365321
91.47611305025703
90.67910199989457
84.99140157313369
78.48409544493755
73.0365893550409
77.57115800260515
82.43034199112209
82.26957210799996
79.74862509465898
76.66948501503812
78.36491528494614
83.8789011802908
86.51269862289732
87.58847141278042
88.03116334280068
87.5554122961257
86.90101369769229
86.52963652020392
86.07815069253564
86.15494723020512
86.38876778599372
85.20996416230204
84.67374188505441
86.63822716465235
89.07700700090301
91.25532381401467
91.57767905589971
91.5424283588843
91.98759042453777
92.47927873770135
92.39718783567902
91.16343606518964
89.98236394887557
89.27268743107612
90.40538532916854
92.77826389974342
94.71851841366362
95.83835448476232
96.4129221934583
97.08602536302091
98.10355904206448
99.01535660299773
99.64519915340797
98.16870112711719
94.08928729731218
91.05025659588112
89.24590611220255
90.37142815070389
91.00957903475984
88.64926935785269
86.75072284321824
86.94688306784774
89.15400829624409
89.58859236197972
86.891020792381
81.36277515910969
78.58321890463462
82.40861723544182
84.86304190784155
83.65517347311388
75.97779767145406
66.96049982558664
71.7390613067842
76.85941516357883
82.56683080326289
84.57768557946233
84.99537966266514
85.99385423685693
85.38047788381269
82.33159771615253
77.77748578901833
73.6632993468942
74.4282690292357
77.65324267090708
82.70838750706726
85.00789152583779
83.78952818996098
78.93243963433284
74.7099461654801
76.03381580166177
80.40008471626844
85.68768995196987
88.27726212039501
90.28945915743523
91.52563223683582
91.8903614610986
90.94798652241388
90.48219531675531
90.42818237146759
90.61797066754269
92.05219818611721
93.32167329018158
94.21912568265219
94.81173529029297
95.20503810896683
95.10557429622382
95.52426630755345
95.90496236074198
95.76168639183099
95.6763502720121
95.5860908528755
95.35362461991099
95.989978062931
96.30597884662761
96.7306296904476
96.91741494232343
97.30619108243432
97.59415400166706
97.38813077026434
97.31259731222731
96.68696820275157
95.88822886642767
95.59920480538422
95.16027004153496
95.17213378588413
93.62289525796638
89.49665986009195
83.71523719028366
78.714099452149
78.26412610482019
81.6440690162478
84.03848851583057
85.50222917173392
86.57798198041556
88.76800491656132
91.53354122669343
92.72863032304382
90.34999460925896
87.32266831699286
86.37288414296285
88.48322401036928
92.03647682748787
93.82361840659078
93.91363117220823
94.77972196217904
95.85451666475119
96.7967043276109
96.6691881776747
94.7203655507822
92.51827602551162
92.33941631797377
93.14169576377998
94.39969853590851
94.29651128525073
91.4734147181607
88.25962174406172
85.59432864357612
85.54946293429572
87.38368191023417
89.23354123825071
88.41426356279277
86.06001072416453
83.90479364869806
82.00453793558714
83.17252859361018
86.70436088721358
89.3398446263454
89.76193499580161
89.26590553237924
88.47978978011734
88.82172057990816
90.54854099246587
93.0537768147501
93.60913238044468
93.05207539817143
91.81226950986898
88.62833533848593
88.17202700189524
89.49444233799561
87.50028440359968
83.60865098464724
77.92386360300121
73.05874474357661
77.87782994492568
81.26878454646888
83.02794943330079
83.19719184656286
84.29593184615325
85.56163319598147
86.76154139187949
88.00599417005417
89.55655567497833
89.7747642610686
86.31247155677079
82.64326774545
78.75557329997682
79.86186897995091
83.77886436362755
85.77148049502786
86.8793116261787
85.46980955261897
84.91878387010715
86.62224364084635
87.07124558636956
86.72845461001984
83.63183426325135
81.54730402451602
83.91159377044849
86.58189145580654
86.87741347263176
84.73903938470187
81.75441429257401
81.72986114128449
84.55227349889641
85.53384500257265
85.34436390059463
83.41928382716279
82.3909213839005
85.03748785471109
88.26623197520115
84.72244389067856
80.41211413314892
72.66483661679129
70.46800341720505
75.48435681345617
80.71347913324959
85.10425823863363
86.37427513555208
82.09743191025761
77.35749534294526
73.32564020362629
74.52553690424868
79.761406209548
83.097574780841
84.73400944762193
84.94631820200468
85.84985201611542
87.06867684141709
88.8219244712971
90.53515928436586
92.18484802340957
92.93537017331788
93.0475074792191
92.64422108150501
91.77064616806116
91.0002217181334
91.22176068552898
91.34018700081876
91.07877882963294
90.70833531337304
91.02009180799897
92.90908547324442
95.24660433850956
97.60889260379844
99.31561921184706
99.68506778701469
98.13029377065835
96.77757968837771
96.38495002859146
97.47748186221752
99.51546648382431
100.55026311777978
100.81479895605857
99.99733034918661
98.77102382523937
97.65489062999684
97.7849901254143
98.69225244616054
99.98185811613969
100.74606709878977
100.8227146588804
100.44073880374302
99.81051836420916
99.28197643967077
99.01970083735591
98.20704087369309
97.61109546484124
96.61967717165692
94.58758765645007
92.52986630559418
90.995596310629
90.04047681107218
89.35874485712935
90.50652769401287
93.36414400536019
96.43200651616552
100.4781341867291
102.27227872674749
103.35882169868171
103.7715741943647
104.30696279422305
106.11178080037963
107.99017921347615
110.0444022579949
110.89766660124107
111.35356844963239
111.18623280287235
111.16715677622845
111.41865012573253
111.8873105316161
112.33130835229046
112.44104014581274
112.13982483912272
112.00984695094368
112.24707472248859
112.76468039120155
113.30631097668281
113.35209738387496
112.87665592172648
112.2255296148987
111.49901672528709
111.162128065052
110.98259943867058
111.14139691445499
111.39262760281808
111.04265416091461
110.3482265539092
109.23843103069461
108.6032871363148
108.95288004848605
108.84305116925034
108.4880744702563
106.65066809655734
104.71942852564811
103.77597822151705
103.55021086536092
103.81497247967492
103.04614262346134
101.64370763690819
101.27344352198354
101.60177751550262
102.45658701427642
103.17037780984985
103.1470650452137
102.91676459662007
102.64057795431289
101.28511783895543
98.96406620533871
96.82994256656438
96.54514467647529
97.78774757669969
99.29409061208548
100.03985935183037
100.40286102436374
101.7877727271918
102.90774601452354
103.0807536129302
102.07076156361428
100.9833101589446
100.38531269884037
100.29295349811224
100.1552131883464
98.7714115010857
95.79956708677175
92.51972400423774
90.37336636005749
92.25518207384721
96.92560211329241
103.33813577025268
108.93184880723818
113.92878838210154
116.70788817025475
118.69222406600579
119.22736491535868
118.2227150468132
117.15249190148043
116.99383234129144
118.17013893761664
120.07145158431364
121.89166986261338
123.2386920740071
123.85990343916485
124.19543209917947
123.90220510400799
123.35430371126223
122.73663583425405
121.83514359343089
121.46871574810152
121.31358401798417
121.24584441276625
121.37467995815469
121.02152423590228
121.39759015760771
122.28538944058012
123.5927757769061
124.80548647427835
125.51440017494268
126.23136829828184
127.02607995583247
127.82228641688197
129.01134143516538
129.66262023481255
129.9625530365979
130.108378943435
130.01132129339067
129.34634439137642
127.59977867950619
125.13026613949818
123.37832238973584
123.03480061585923
123.81646067742082
125.06526572276186
125.75846594613111
126.03251975685995
125.87314220781205
125.31224863350076
124.96153854333157
124.5205797224027
123.20282921146836
121.39749991314761
119.14351757480617
117.26338876974484
116.27006016552055
115.34198445293863
114.27496413001536
113.16364700283745
112.46602660816085
111.82007687687033
111.1638421175279
109.89259404384273
106.82880221165968
103.33232275391872
99.84179782595062
97.1945505353897
95.64559346224631
94.415344708914
94.99284105490203
97.33841406840537
100.49276250085943
103.34559185036005
103.64024168255095
98.9673400995266
94.44338298553366
90.68388040115182
90.24032003578075
91.880112607669
91.88247063229852
91.80843489365226
91.84801685798658
92.54634313416959
94.4538548872722
95.1306838608686
94.58717860747696
93.13669490976758
92.79992086463197
92.55237984536211
93.76515057160515
94.1087476476625
94.45133586685903
95.82314611652191
96.32849627342007
95.09475416016993
94.3193940574731
92.16835093478711
93.60268412924466
94.40876454907766
94.74403795062308
94.90731980288079
94.53463893927699
95.06406802060066
96.59421692454531
98.52928955536277
96.67686563103963
93.82671838464977
92.17571026314118
94.1224903979279
96.54183074815728
94.73099548442438
86.09017179553071
76.94103730758319
75.25835554384868
78.36540878821954
82.34689308367973
83.79069358719656
81.78330761726099
77.66140993551916
74.77980677573245
72.94657916998621
79.29781994225294
87.25099877969703
93.05278614020347
95.75497090329047
96.28163372872864
94.633315030373
92.1681688500143
91.16914417074422
89.34240189018104
88.94390566180438
89.003718875382
90.01609485649038
91.17335560934234
92.30180917024867
93.43219235666983
92.89036424843803
92.8180154924815
92.05312733645047
92.64571812987076
93.48232699369665
93.42999551806321
93.00114386807337
93.05759093470678
93.31021733135758
91.2380947211408
88.30208892430012
85.2883779188608
84.02444355737447
88.24501624924774
90.86825464126387
90.98839732780412
90.29550898491199
88.38911192308186
88.1098826819327
90.2613262976059
91.57887797416356
91.64054804303704
90.7892625174952
89.51937814940335
89.48274452921375
91.15266830681136
92.75896331824896
92.8898403956956
91.583205386364
90.0589711521818
89.6539595218925
90.80001775984772
90.99980863683756
90.74193929239458
88.66076282432427
86.83803262809734
87.50304656367774
88.90481065513445
89.30464207862487
89.03652644155162
88.16919606023592
88.91648084192252
90.23179187554594
88.86164273314624
85.65432294640209
83.77074007613639
83.7219056443974
87.58183705763193
89.41582022929815
88.51122427798165
86.62586199093329
84.48303123711501
86.27729402941246
88.33652103039756
89.0784019198416
88.71563005512782
87.27400461456986
86.50347307025443
86.46561379215386
88.09185766137398
90.00133298898623
90.89907742627896
90.36926150283568
87.69672894028652
86.21823881503167
86.21320105727276
87.68215311408007
89.57387114111006
90.7152014661744
89.81950705633152
86.4862271478868
83.36330144902281
81.02190615233883
83.42027850623732
87.12593439980003
89.87683922185242
92.04616594236848
91.80327295255299
90.05136120105193
86.66059383684602
84.82350636742125
85.37345141621795
87.04984365688732
88.18493176796025
89.07089341912337
90.23901171444963
92.07913734345938
92.94389847804331
91.9091773151049
90.76905915809458
89.6707826699136
91.23930192326735
93.2795155455748
94.93016417743041
95.32761814567544
95.00008260583826
95.57535944971134
92.10901506584717
88.37388280281132
82.37038480721516
77.89766476886922
84.71879116314084
90.12681451962145
96.5111345547958
99.05252545236085
94.10545253043857
87.46197230659686
78.64299541564813
76.33546336956462
80.38464189233606
83.65725065646073
84.08160049206667
82.81492358656838
81.42384113085924
81.739918219191
83.91490330041796
85.14046829027588
85.71007856594785
86.13027316855793
86.48048929631695
87.98324392159034
88.31089073366486
85.52872623569915
83.44353637326125
81.85791074995866
83.68247642229167
85.19294524521662
82.42371909381392
75.78053369200853
70.22440325591688
72.36961194514376
76.56159336708075
80.0576666785035
80.96568151388927
79.6818080602058
75.029680397289
72.56400069838749
72.02143658570311
74.30006785307168
78.80241959128577
79.39914547717586
80.19299433832553
78.59741220711672
77.16043230289264
76.50810332096646
74.74809728178974
74.1554197102281
72.05247702214866
70.42960331489073
72.15879166059258
73.7404076134426
73.88020648455272
72.2167337055951
69.88043904981016
70.82066891037132
72.82475690822261
71.9937336335314
68.42192378580246
62.090578260282236
61.41088414024221
64.52569354341198
67.42415555090685
69.05011888629397
68.89103025615628
66.53836916800516
65.06581907562072
65.56205526453202
67.15881065795423
68.11330617939448
68.25626367549542
68.59728820012039
69.1783298903336
71.08022453188124
72.38452671994632
71.75600288753121
70.92686783185572
71.06346761219352
71.24361112383141
73.23588351800515
72.97069007449184
71.36458461292864
69.92137123979
72.03778911064909
76.21865538420063
78.00678410489061
77.21698171846357
74.37373287530983
70.83034774152148
71.14390938456393
72.33089894252635
71.51364646555228
68.54355944590452
64.58983748012677
65.32446648257809
71.33619564492237
75.25499623311207
77.84135146810696
76.64269796845798
73.35934314351788
72.14860148124846
71.88874949097655
73.83863964853691
75.84579591851875
75.92993852924324
76.5317431485052
77.73459479173226
80.17381329634651
82.00013255282917
82.2055495961271
82.42095970383217
84.56084736823342
88.85508075179872
92.33233338294242
93.45525329709157
92.42796819248433
90.18416253960339
89.252080868672
89.69842704902236
91.22137525768234
91.78245396413773
88.75974153883003
84.62453698278141
79.49133351479091
76.4610766486814
76.90650858307293
79.3539545894333
80.30707056934956
80.00705979257377
77.52869414147807
74.68926411033583
75.3202799233551
78.78972409798226
79.00377677885292
79.26047626893532
76.45271605092425
73.71441552620165
75.23634953541128
76.92818921905024
79.64433518206548
80.34274015120579
80.125387484932
78.43937663585257
77.61820432335477
77.86356178836246
77.58750634606871
76.47482226372094
76.28750186603082
76.66124010213633
77.44865465762598
78.42664842164247
78.90313388800678
77.25051552175407
74.62264865964215
73.36873934153282
73.53319010139052
74.89284609103589
74.58663428776129
74.12141009812619
73.0593612605465
72.84132483981683
74.62206131484396
74.68883454646704
74.36650794990206
74.78937857794543
76.24685447275694
77.61099390245217
78.22582272782276
78.3870687809831
78.07571438708308
78.08326890882768
78.63399796091521
80.34646776417749
80.7577060387686
80.22010157816239
76.89551321474829
73.62838683983031
73.76136785641766
76.4459025486999
77.51349125877279
73.27561698853525
65.01439820910704
61.544860086773205
63.69862559428149
66.99661397850679
72.09663139344566
76.35515154373252
76.4535959922698
75.63124950218037
73.74600592037112
71.94820911507041
73.52942817586516
72.57486787850854
74.15008419351136
75.77114612073865
76.15253844984899
74.92263426227686
72.6985565556918
70.57028771329198
70.79466012627165
73.37045534189873
75.31913737066047
78.11387317594384
79.65804530826315
79.34869041603702
78.36795679201171
76.72183855107579
77.2972858173524
77.41171246816933
75.17447607015104
72.6331850762858
69.64649666325532
72.61023441648824
75.44470313839645
76.23438330114163
74.51674013099881
70.37251617002221
70.82977741487488
74.61028549194026
77.76588842315768
77.3693179391317
75.32875911444086
70.292498277884
69.57494889064789
71.99285636533062
75.4913162722736
76.51655396968728
75.70871171732134
76.19238694033103
78.48754947291428
80.93987094358468
81.52063454192634
80.99338167839225
78.69159252089973
76.56215551679523
73.89063284772574
72.2687973535782
73.7769381612133
76.03249583750464
77.9075153297821
77.82913868946227
76.9491901704123
76.57938321387438
76.06801768265026
76.86873769356497
78.17164786033712
79.99990896613986
79.45030968688775
75.39791825757416
72.0187091814912
70.65936773160598
72.22465611735893
74.95698234677587
75.78563455429999
76.14880106257527
77.28416999725289
78.22612540405362
78.64690584797259
78.33714829568794
79.2246358398089
78.03854640535549
75.51144716240836
72.9613371104173
71.89983836769504
73.3731882251749
76.83037299198193
78.39519414525041
79.97674533233423
79.06156014084166
76.38030143826299
76.12488058289469
75.46520022990627
76.08535033539385
72.21683797610275
70.0936665931304
71.30865419445448
73.81763883083704
77.65491181352961
77.98103077331103
78.14739616383446
76.7693080934169
73.37025842552735
72.61928390185682
73.05121095598892
77.57313672051822
82.06762730671507
80.51021542796293
78.94242410217845
74.11480414366754
72.16042889958555
71.93297089849736
73.07019176308307
74.80871522783472
75.75256290161991
75.44846408031245
74.1753920399827
73.98522365956734
74.51397160530806
73.63213032571394
73.07811275674653
72.26129634205137
74.31989637933592
77.25046516944245
79.0982009163092
80.09052637227096
81.19181956817461
80.63613124901211
79.87802307329665
75.76802350868462
71.15958267527813
70.99276072780026
72.94208626378526
76.26791513919039
77.39475750121436
75.33252366527462
72.865685783578
69.90723475596317
71.31347434225592
73.98336932849865
76.51440285034508
77.9897325096953
78.29091070854348
76.41792278707074
75.64946853068292
76.67061266721547
78.36873212007484
78.16131318729933
76.84419558581277
73.87637925112747
73.45606385534609
77.35702661311474
80.68544213556277
81.5294495212613
78.7741505960226
74.69982632554421
71.50277159924107
72.78117777855515
74.68397980932883
75.23118900015442
77.96449603229007
77.56696152858495
77.78222529960361
77.48931302141878
75.90658297779514
76.28391905935624
76.03839624017655
76.95273658374587
76.72603781831734
76.17007531470331
76.78725871811288
73.98925924451675
71.71111611055548
71.08122585491591
71.87999684914371
75.87535768947403
76.38267755900442
71.71084738809316
65.73694717455828
59.396460782369886
61.24189361954651
65.37782638216729
69.26021387956803
71.74620720808542
76.5792499287809
77.84413075208974
76.83184696939296
70.86644309714238
60.74888485682398
58.04560779180656
62.42780095955597
67.75483422218791
73.47851113028229
75.40446650592213
72.31793833906306
67.75737143785106
63.3417440440776
65.8322901230222
69.97532961839804
73.90246263418511
77.45807451571311
80.67970399064228
82.76138265942616
83.84784720607986
84.45555782176424
83.48596284554304
81.25697203227031
78.60071671630546
77.26020023192459
79.73797566587831
81.3901269851278
83.5834121035889
84.02233191276524
85.01560364893406
84.23096416634442
79.1719535009425
72.3370621516959
64.43005582524408
65.31855335976518
68.18547085642916
70.43609562610474
70.34407029943483
69.8121366873349
68.28102087228928
69.55636152868198
73.38830435131509
72.90101062713883
71.38791891060909
67.5615292850793
65.90875988992178
73.09789964083853
77.23113084491132
75.56507461065338
74.12353210046814
72.46004598047499
73.76328745204299
77.8752041200559
77.89244806188654
76.52259729335198
74.98700335500243
75.1787562042875
76.21257769439076
76.9954416717747
79.88076395643793
79.84785696763342
79.85121708094431
79.33855027314294
79.1024836748733
80.32134884947172
81.04927490355992
78.79922870146324
77.5469407187826
78.97958259613281
80.75035703916856
79.6274803783523
72.84533505992087
68.74211691335051
70.4657187464228
75.16741506729699
78.51691756032315
78.23774707958577
73.91911025126205
73.37359636975343
76.60115766293059
78.74218473545771
79.0645668680843
74.59721697642823
68.50349585258527
68.81410916576274
73.46011242203231
76.5599216423324
76.28524137506851
74.04712117380362
72.70443216420358
75.66906476493438
77.08470226354143
79.4726736253496
80.63950380026908
80.23633696774941
79.81748044534035
79.37359960976877
78.87167725534611
77.8692839842491
76.65450753671927
74.33809244415202
74.75853708874817
76.33016066624504
79.16560695136211
81.51674416004462
79.2201159901596
76.1330037103674
72.74368561910863
72.24744556337544
75.8692421665359
79.20770045160567
81.29134504882093
78.254260054707
76.6929088684546
75.12053862932012
75.30770430199804
75.6442325348239
75.13067552677168
72.71516937098124
72.85706697173543
76.07704857270197
76.1832961468964
77.1185973896738
75.84941624062317
74.29095630381181
73.58183405533626
71.87745900305127
73.13670992445834
73.78771649940437
75.91373974553514
76.60067247040278
77.93797416374308
80.38142966088037
79.97469078565044
78.73488724477676
75.18552035527968
71.91659808191568
72.65798948426385
74.91119237526419
77.2078944246103
78.64696326487764
79.49178544611206
79.83837168707103
79.53643306045643
79.40786216132179
78.69647681612463
78.92697194162025
78.29129403410707
75.6429086256993
72.6677277015955
69.24650137647292
69.32311147792424
71.1978655011847
72.56687332446805
73.31205048028504
73.58704853365519
73.54955789121401
74.79317957028962
75.70397851426632
76.77737519750443
77.74734704942239
76.14268868523239
74.13473224898257
71.5047816321746
71.5989244888553
72.8132685793255
72.27682768671869
71.74041694676174
70.13357536730854
71.20615660837574
74.6729419299185
76.22733445150214
77.13876525622544
77.79462929776327
76.53950411826537
76.62120596536482
76.81524403141702
78.14131878972417
77.46097958501834
76.00821903861635
74.61972200038356
76.0757512575486
80.70960574906321
82.79622707411838
81.40821065408093
76.56767353324001
71.53934729765695
72.15682940003506
74.92590457196849
78.23743423612142
80.23957427575353
81.64940986781116
84.56955059906511
85.99132801587467
86.74925364547366
86.12220505705614
83.58151593014402
81.20438633219413
81.04965704555019
83.08301047140807
85.61735236518841
84.31563846626929
82.66488543468219
79.52222800692564
78.00260067881835
79.62083266480032
79.81465594274341
79.21984110604136
77.48260149790076
76.05313565799965
75.10170903257648
75.44534870397746
74.91486026476935
75.15558341515788
73.9214762692855
71.93146885973665
72.4687547190074
72.35221187910813
72.84598217296485
71.6303937377954
70.61889150922815
69.41924820364864
70.75474040679697
71.85938370472756
72.0547721309
71.81111228120514
72.64635608755512
72.38668020362768
73.55972146498321
73.25215929864106
73.12323968559542
73.45424194589108
73.06521445629728
75.3032505263833
78.07821543717039
77.24815225034052
73.92817026692578
68.56002183663168
65.4369151559463
70.72544121206305
75.4649179829259
78.1063635457756
79.21498108832613
78.23039003906835
78.08500647842773
75.74782155189081
73.16926086224849
74.56737181427778
76.51785030034401
75.19343189207079
71.0123904514157
62.792402371559206
61.11581524239966
66.43392861082958
71.04831667257434
74.66216757751619
75.8614148501714
73.69374979237816
72.4781956204479
74.75205873722032
79.4448247733681
87.83514283698999
91.90346941953986
95.13908416410487
97.24079904933195
99.31934675058709
99.60126707827219
97.09229656016356
94.060256144231
91.49251228897879
91.73656193678052
92.84737516729444
91.46308426990119
86.24113426143451
81.86337153630103
79.2203954907482
81.81617930573609
84.25271497412986
85.51171555329623
85.93423520771049
85.41057678101451
84.91118491983623
84.60018429837976
84.350229317503
86.38582188172288
87.65793012207513
86.92083491659467
86.23676948166681
83.94858077262245
82.68081567901098
82.73993891599233
83.86333823032628
84.32799424135357
84.77551399977843
85.13732147045525
84.95286970159063
85.61825717042812
86.4677829641902
87.67891100989185
89.08226203348858
89.4819481129905
88.79791280274453
86.79498842201855
84.51892459853207
83.84055904908826
84.9063656311743
87.09946322955588
88.08722399886437
87.75974870473114
87.00846058723845
87.59751624374735
89.3992738587625
91.61164453533735
92.71537030845322
91.49995450128607
89.96402119156069
88.88306128641938
90.10570635766761
93.6457857700359
95.39582188211766
95.10649361159369
93.38962401912983
90.02798810242452
88.13615753705818
90.141340033931
92.64193566111642
95.57575464878869
94.6129757526134
91.20173349164885
84.22434748179666
81.68820634987722
83.99591187952869
87.76887395083368
91.37003649227167
92.5016800083142
92.63657962560575
93.07149318177714
92.97300689064473
90.89487874738747
87.49074608744141
83.80551369563159
83.26774829250628
84.8782124611933
87.15699625020113
87.830539787368
87.15704135002677
86.02666660901717
84.6237676865762
84.08634025616651
83.95026923005817
83.97316189409347
84.0828140849386
83.65987955321722
83.10519717903581
82.61582352628676
83.35531504385557
82.79921040302332
82.40866666994182
81.80177473035069
81.72379465808235
82.68878192195666
82.78851388873096
83.23006798575001
82.33014994636021
84.13524678589599
84.91078162860406
84.16175870706792
80.02702036633191
78.84044593662009
78.51727620807416
82.94438927515475
86.9812288603972
87.38831587200941
88.3306302977219
87.92334310575134
87.17780205942448
85.78834729622494
85.6449048167443
86.50738428371884
88.03294272725253
84.61974411317254
80.77585232677956
78.69327163431727
80.77940054952585
87.29289317553483
91.14550389392652
91.79231036795395
90.72672745461202
88.75574629747081
87.31844656989307
87.59172928373327
88.47532317251336
86.52479241563358
84.09405933262212
82.32995188857744
84.02153875977179
87.11486182045155
88.03759600786856
87.71081992510223
87.62414760819091
89.36375370496015
91.66285259853929
91.4240527152679
88.25511828938798
83.2418412513797
78.63873187070988
78.55259649550537
82.14993371421471
85.16594297338241
85.72663304650362
84.82817923500762
84.10374835536611
85.80271488996104
88.50525562736892
90.00065831508391
90.48572984041459
90.79262471478792
91.3464633792133
92.22681752200866
93.08927355931544
94.3330922624638
95.68784597442122
96.61584782477127
94.0550347303253
87.5810920748794
78.10613767878678
74.19205407149748
80.58402082038937
87.04217852244734
89.62434010512754
88.22328159494509
84.37613756406705
81.96195768965437
84.33292977905816
85.17881778744878
85.27136224077091
84.43513917145847
85.10997600265594
88.20787296934215
88.14039401036761
86.76172426681795
84.2666246823702
81.51083763265677
79.05287283202907
78.96374876756272
79.36371179260748
81.50622850413454
84.55809002911117
86.02934260436314
85.91091359016072
84.00467522274154
78.87655374235412
75.84993416850486
77.74083506517783
81.58314153018854
85.05980030416698
85.55038800828592
83.62644696332839
83.02092715275359
83.42779149249179
84.97755042628502
84.15210165442302
79.68938727358794
74.75605147404777
73.02848855671301
77.38607605049523
80.36271078105824
79.18572270490114
75.94856186436651
73.52487286907348
76.76090580410015
81.81818074152864
85.96414702600316
83.88965666179715
79.50473727089002
73.76728629822476
70.79936928326487
74.16617913874262
77.11173406319399
79.39308023361642
79.97644651446588
81.5803561659605
80.57658502786474
77.714610613809
74.45567455706444
71.48658558679905
72.70508927308849
75.06788168954058
76.40773241401969
75.7038869756728
74.18344271228393
73.36258493675493
75.94700413796163
77.2270444801304
77.48655771148748
76.8346324624682
76.38002932348748
79.65650386859073
82.59862449555753
82.65408325118376
81.75999446894194
78.36433711587992
76.25338804929879
78.1147289757809
81.73527282428611
85.25453087975878
84.86112630330248
81.21635567729805
76.93582452088887
76.19612624487053
78.35015289918034
81.28724898952416
79.55596478421313
77.71438899170282
76.03654390101066
76.87346635630168
79.11604738394848
79.53943115320894
81.07528631015742
81.53598777188706
79.22597391744083
78.10373753588614
75.57500023186851
77.67267397300743
81.50470524182167
83.80852568370936
85.3175936337932
83.84090425848035
81.52221256307786
79.64377639366192
80.87701114031391
85.13453424650007
88.38747121934776
90.30097204897098
91.03837310670389
90.10944511235134
87.4551591457777
85.64535783895778
86.82032968562888
89.48991674344562
91.59078217914652
90.65574164484175
89.29359297311655
88.80946349816138
90.28312916673622
92.23585316796867
92.251664660466
92.12068056255883
92.5156711417051
93.38501524930301
92.26575161312441
89.90068355329791
88.71332416628194
88.7433485552433
91.39626249203982
93.41589829144904
92.61154973953018
91.31598880129646
89.83735441948525
89.15676482294383
91.48130341290964
92.1781718834406
91.29540448412241
87.21761606090375
81.79415465584046
81.85037617108937
84.19515690585641
86.44631961846444
86.10057803424061
83.4097872377737
83.08011756038916
85.04779708622425
86.88703285307255
87.44567713626773
87.14185338450069
87.6135944678131
89.75204409310643
90.27383112418862
89.16579976325397
87.84007134747327
87.07550340761124
87.74262571886271
88.90132839660052
89.08290562744418
87.91276093709835
87.05052297419974
86.51545497242417
86.55349805382944
87.53720648682811
87.42500692204126
88.17580193902161
88.58257589927878
86.10479485684797
85.73724030408984
85.39541519407193
87.36948202475442
89.60871956573685
88.26874489324513
87.72336385797482
87.86274446977743
90.15727547216524
92.4550586687049
93.6810455628546
93.34909718237836
91.78865853813284
89.78931272298165
88.26981590322741
88.7957572803161
90.96202139125732
92.69663723175262
92.91743613562868
92.04584139038504
90.86690242998935
90.55165142216298
90.60222225412232
88.713888260737
86.47045177257296
84.73792781121747
84.47958346821306
86.33686720441708
88.5957205033542
87.4042524865741
84.75513918019602
82.24707411660627
80.70315743877747
84.45473306174026
88.39515093134347
89.50702332316557
88.65499597057556
87.1111440499418
86.66684114723287
88.7764539604981
89.28512740672333
87.85046898576081
84.68178703820392
82.0138932862988
83.49896959226928
87.32539031403552
88.30390159220862
83.9990688633824
77.49249679831134
69.60670234940775
71.16825084602283
78.11772310098026
82.9407697924274
86.2505160054602
89.22471173356058
89.56823907106612
87.30851577612792
85.56952258094849
84.62134620259155
85.44568980152845
85.45186300485656
84.1741563038264
83.1138149019985
84.80068344116262
85.38821831874736
81.45974979308859
77.1644857212228
74.23290788170338
78.10575150727541
82.6951910695515
84.8190143702164
84.50592751430078
83.67699252040624
83.40573689921781
84.57413403695891
84.15073190633419
82.21786645524045
78.531035302265
75.71281439916584
76.5699666562727
78.53465897455791
78.83963778634595
76.1993414631557
71.98338095397669
68.74044918246672
68.57019352914702
71.18143172926472
74.08097966448148
75.33199041636246
75.38920386466312
75.11503018097562
75.05364047512113
76.95527172098434
79.58305357639857
81.47665515418643
81.72882815526319
80.253248184855
78.36603572448251
76.42338997568756
76.28055145916183
77.44363526083878
79.3677690827506
81.49342390176328
81.73342856900352
78.6552015190759
74.85476124916269
70.85989770847995
71.53502912308618
74.31943478931396
79.00459036115643
80.16858118570187
81.11353554838479
79.88405379598353
78.3852116802114
79.26099771272465
81.32542268718241
83.71535693529663
86.25245521963373
86.62035605389431
87.87911234182263
89.2911077194381
90.58430451828953
95.63240112155732
94.1526979441177
89.71579689576902
80.86298585637921
72.6244198216887
69.67169318005416
73.79554582227642
78.4949464748756
79.06176244139083
79.4439036101831
79.84276542984512
79.22499686413731
78.25979372821558
76.99835894529397
74.99274070750381
75.27007126141153
73.99460268426533
73.96632161120813
74.54838540640696
74.85869021872357
76.85350361827217
76.48389999990044
74.94651984476461
72.72178969519265
69.75087177466509
69.78014507569583
71.02451620975611
73.15790744961649
73.62997372137391
74.23125241981523
75.23153399504098
74.24086089346565
72.88653626593184
70.43912926878245
70.35644994731537
73.34518213842382
75.51821638232485
75.2143856154159
73.20889597716226
73.00517942224685
75.09649667948838
76.78404061777333
76.90766412689804
75.89154677110665
76.61566734582797
76.94569213903651
75.59842270473649
71.93906201465157
68.13350914112635
69.30368572690105
74.07157071814858
77.54171318295214
78.03816708366135
75.52088791825457
73.25483301254212
74.39776107468226
75.49720430326796
75.58528288016628
75.31924004261346
73.79638881401287
74.76804542655981
75.09440354048485
73.2774178061566
72.19609279670777
73.60382389275864
75.85739351964081
73.78391944701309
71.01357606798264
68.16770470891322
71.34998708782454
76.24607405246974
76.72063261265993
76.56292753692207
75.11649460790397
75.51628190237003
75.47013374121656
74.37982346379992
72.9580611720461
72.07121728895885
73.8976741402418
75.94748191300454
77.45122600948237
76.12233295754474
75.36917049097207
74.64983063237815
72.20039445272687
72.63095983084153
70.89641698724547
75.29967596957113
80.68381457744664
80.41173233373895
76.4936868166607
72.5464699174531
71.59385583578057
73.65338855594466
76.59708243398585
76.82584143797027
78.69722338010756
78.66460696482791
79.91772137297852
77.87532078714646
76.49377216570494
76.6913185618152
76.03991318083756
74.20232023131571
74.60683920703981
76.43560886070574
79.10964796298008
76.9085421796174
71.77315884069714
64.27554731911121
64.73784864513277
69.12937102479361
73.38933379371309
76.99851191229328
76.71276501204947
74.28758988412362
72.99591925868096
74.43295538443985
77.33017145472648
76.9650190857061
76.3398292099005
74.04374496284169
73.34815999966465
75.90962207817873
75.77720132192155
75.80142205490326
75.01609115623553
76.43946153542791
76.98340938668908
74.51194404841493
73.71842317394129
70.43342689002148
71.33235737933528
74.67434917101785
76.57724582024662
76.7913868048738
74.6977271856253
72.84471826880814
73.36397857934647
77.81726187407041
79.54911430967576
78.03155468137744
75.26104516237871
71.62086909324023
73.75176710325053
76.8261647418467
75.9302874991194
74.80132748980817
69.84036181826339
68.29231015816282
70.74367890649282
71.79644049109714
73.01509608526122
74.26835772008309
75.38429195069895
75.37438248752943
73.36030732890026
71.36930590938937
71.02720114372056
75.09430823314801
77.10297298615623
76.77490520617349
73.55855210531811
71.46022643472534
72.39076939106303
74.25096175911852
73.49090323505388
71.74591942288977
70.142949049196
69.81324380865146
71.43452096485845
72.85610104114875
75.39875991572632
78.78922030449823
78.07552970188314
75.32726022896625
72.7024079588528
70.93869730808257
74.61004959617844
75.91330813195209
73.56324707388515
72.6914661233499
71.57256019918283
72.75288666931682
74.62593727863663
75.79434558133768
73.20604818976827
71.23955971445946
70.32627895590969
72.41365179902122
74.79696365754262
77.19232894897826
76.73181287070702
74.00931795075924
70.70201756626473
69.28453499682331
70.54670494160024
73.317821443726
74.86202437366532
73.3905766203743
71.77082286837978
72.02736068086497
75.31147300544558
77.78966876096601
79.45236882912421
79.22207800131079
77.07380413519039
76.05566175159817
74.82697472562005
76.73741135458492
78.62551128580782
77.74129900392953
76.75602430684836
74.7396505052635
75.19778794442747
78.26242325860625
78.69579270163018
75.92122319080639
73.75165968071815
72.9254811415909
74.94468645931187
76.83487108828018
77.50753044369054
74.78128709462635
74.62023323588373
76.98336664307756
76.42978383299095
74.93200085527589
70.7738874813473
65.70928835927988
68.44293757005818
71.08835774373009
71.41213742388396
72.92120092961973
74.58975180785639
75.33095351508028
72.01479126619006
66.23234007752352
65.46262606373293
69.06021668860504
73.91791803047731
75.17435903401389
73.19338895152242
69.81782291344484
68.56274168508986
71.38753349695719
72.07793161739144
72.13767660830781
72.94724506118803
74.5868149631637
77.26989305096312
77.47970955075466
75.06002733150295
72.60400782844442
71.50450775407396
73.05904876164563
74.99258559005797
74.83462590888361
72.78866267181586
70.70103570905968
70.40633692999478
70.26830940392819
69.95291263981761
68.92756240008421
72.1097701872139
76.2774949029403
77.80306913925692
78.09606988596909
76.49111297128162
73.90925696067117
73.67355568360739
73.7632239426902
73.06108653516023
76.09589754051129
74.73935179192078
73.26856277622784
71.9949292075654
69.13833954679608
68.46227398249073
67.01324560721237
67.56572211618064
70.40499318483164
73.26705335840388
74.03785214609236
73.7644297842438
74.8507694479492
75.3776322298701
75.76249451831433
74.73880180877968
73.96693435522248
77.77668705190806
76.96047743159619
74.65477300597102
72.16521814056571
71.42404628926298
77.13567250121059
80.99855331292042
80.91354479024815
76.90661104906731
73.02364404084273
72.74042371206956
74.62892569456659
75.7067455232296
74.77698393614138
70.96119800233981
69.47775894123293
72.68098048961298
78.47500634480429
75.2380050393303
71.59600137789408
64.08982120316303
62.24951344270495
70.52786699177372
77.83492482790331
81.29566800469209
81.05073690885517
81.77665148473896
79.74671888058545
78.793848985103
80.08969717654664
81.1569862513512
81.2251949883094
76.29571343554899
66.9470703710341
64.96587780060813
70.52016542614771
74.81148965088113
79.18121595589484
77.99816695659035
76.13390943758236
74.99172170289647
76.043917473784
78.50647327516155
78.76136269921092
76.41049817820677
72.1816747983524
71.16248100870776
76.69753334494213
77.03289557805235
76.78577585591152
74.51873729734109
72.02894572431326
76.08386340400325
76.85985852482976
76.27320594762563
76.4802360093329
74.45947152455656
74.41865429617104
73.36810183379193
72.64946410526525
76.02405712881458
78.15971302917912
78.83844467189135
76.26854455046303
70.63493078979809
68.17959133941756
69.62196822126629
74.29605224288996
74.33218544688567
72.83427049837957
71.19461956766901
67.24378948858713
68.57581905361909
68.91141173242092
72.94903617437933
75.85825542135352
75.20396444443662
71.73027591852194
66.8450949501312
69.07588210315808
72.15949317783195
75.22189620788852
76.02167867533933
74.5112004036733
74.89444726542155
76.3384916807722
74.43411144444879
73.33371095376572
73.33776188706844
73.4134377686797
75.68794221041567
76.28221996308149
77.02671135208749
76.92272303593508
75.70472697615085
74.57705863027087
70.56336358242388
71.48787144513774
73.29425415820684
74.6431511711315
76.72214536443276
78.26689915519076
77.94141762585383
76.7752632550764
74.83632542989466
73.6551130114787
77.23714808854771
81.03935243705504
83.02735372457593
83.2144632013493
80.88862146504479
77.81939039516567
77.58089451323272
78.3155245506387
78.71782351999106
76.39369531223134
74.52055838102284
73.9982924025907
76.51568737724999
77.5552730016206
77.75412979539522
75.12027079720139
74.52014503068443
74.43910569757443
74.2756436814002
71.93759898607408
70.82997061266275
69.77688815028765
74.26958019871739
76.73205164807882
76.99262298412431
75.51312861122574
75.70534493494884
75.97376699617448
74.60870166559192
71.98883540562379
67.7514692627838
69.48586757409404
73.30205895945379
77.68202868503765
77.98310725375234
73.71118090043126
71.90364606987595
68.66853116032608
71.67627423753851
75.0220762348743
75.35507802973052
76.91519302815718
76.43529607962722
75.38913364599853
75.90240995497479
77.16578534524072
78.01887542559822
75.34761030352806
73.9298598109164
74.218571139404
76.67420964471705
79.13696685760486
78.92408608819703
78.33053987333157
78.7236001655226
78.04408021061684
74.66442462264045
69.37128108044784
64.44772340981362
65.5955467965765
69.28123244047252
69.67563261374548
69.8289344905062
68.73348757902087
70.42336457778963
73.74705437078592
77.40340389564403
77.6845684513932
76.7447951142931
75.0447901091895
73.0129859125189
73.7575360749909
73.51135298357612
74.65908997571383
75.37389834435922
74.90467311341976
75.99232599480538
75.65482124587969
76.8218623182125
78.18054073925718
76.2269851927984
74.62542148539995
74.29500301824571
77.61836756880828
80.28018869220975
77.9925515184045
73.85230414292083
68.08622069561072
67.18767818459693
69.33293268228459
72.12732947176352
75.28270659743195
75.99636534064759
77.15421745891739
76.75093143785432
77.21427425153236
80.73002058939643
84.57235237067125
91.52083214649348
94.82961808362147
97.48917539648984
98.34544332812176
95.49400766251277
91.41834796098291
87.48661856368766
85.72690124414542
87.40423852385534
89.27631389925317
91.84563094983824
93.18238921340426
93.41761500739732
93.25821033431008
93.37323425582503
93.6916033717673
94.43342647860624
94.21818782894712
93.52329780142523
92.00572897393823
91.25907464815431
90.46976322267669
90.29253890362342
89.63615094262876
86.53550895351565
83.83700468857967
82.82701459983232
83.1744509151978
85.95225305134416
84.93552171422355
83.36926612345823
81.21686241388443
80.6021337851726
81.08484063367165
81.00408763966959
81.26731980049621
81.22152874919864
81.17809655082678
83.22092974495425
86.01990065100254
86.2399065711208
85.73020296666925
83.75201887092076
82.30161405716929
82.92470869462282
83.49688829940334
84.60687355928098
85.54826515016906
84.60043685980013
84.03372288095237
83.65564045123544
85.260670105909
87.35006525506914
87.6480384181379
86.70275144023377
85.25945708585377
85.96959985082748
87.98893242436509
87.72602398383282
87.08376023295598
86.70450284736569
86.59543829737135
89.08910957774378
90.04411969531833
90.40725783528815
90.3341043026367
89.51979413284056
88.23753791372764
87.13759943208073
87.8307989873985
89.84778912781113
91.45437281746682
90.69037014243428
89.47511359386775
88.04653643129141
88.03494918620704
88.90508216638666
88.95183712213802
88.77044528832936
87.67766848725681
86.33200640341678
86.0515629052207
86.86987899968939
87.80295940151801
88.82273454602377
88.26440399915542
87.95601069901856
89.28930640826334
89.5548775727537
90.0007639496522
87.05907818530105
84.28238481269346
83.4615535213608
84.5065273713063
86.78968872540923
88.0399218195596
88.00815948612009
86.73126193193329
86.68476625528119
87.80847576493399
88.68806303607462
88.66265376104425
85.56194977865162
83.38728063942449
83.51493572901033
85.73916571739588
90.24695752920806
89.17975091128825
88.03808169803254
85.49291408178969
85.3234776641916
86.66224353831247
88.33657030379652
89.11357808489996
87.6161035636663
86.46749221634002
84.82018222484047
85.20716643014495
88.22503798759854
90.20476598953267
91.6744457735895
91.2094932159329
91.20842171023739
90.80983367355496
90.01567788164033
89.4630681554236
87.889444460314
86.9307139048905
85.12741752585691
83.69346281071091
83.24292558602679
83.94560089634125
86.80394169421565
87.8053016506419
86.63750593624233
85.18552185013374
83.91761953072822
85.46940324929614
88.71454527961951
90.7052465427247
89.66909101447442
87.55322674516283
85.2420622695837
84.97617107544812
85.4117422028835
86.34826101108852
86.54542467429151
87.58312748837778
88.9605539322351
89.75769531549157
88.87084062065765
87.22346051638841
87.62842182838608
89.85681757978439
92.41100169007761
93.3414055374381
92.96182349688182
92.8795348688489
93.52511429094238
94.37399786058955
95.88202461178226
97.31090210807645
97.46004847277418
95.24714085094035
93.28693902472304
91.35321777291848
91.95049644017503
95.51218388307035
97.35975382490788
97.72719535602484
97.39187640895413
97.39083818288519
97.08353485843712
97.30759102184875
97.28845769832604
96.38620616449015
96.64601691669367
96.43931331834246
95.68462143084706
93.74593477287976
91.3074854966514
89.91092633348698
90.2923418784217
91.23990007362103
91.41928994248154
90.69717915197783
90.25890668512412
90.10836639915384
91.63196244872587
93.42959799091066
93.43070767697041
92.7305106009958
91.28092259002176
90.90726251658384
91.38944650297485
91.24274377245787
91.06578129582611
90.63754011926908
90.5830234409266
91.70682378558685
92.52811974422804
93.68084557428182
94.03658253216078
93.58100832831673
93.19999396307553
94.05422021668437
94.5989127798645
94.63754402535153
94.7344496001425
94.08766745722681
93.77870779586759
93.87668167678713
94.63654585670355
95.13136677638734
94.944229346535
93.9493519520413
93.34276501068422
93.89050505491788
95.39366926021872
95.82080182986753
94.75108639588655
92.67765170250345
90.65490133493785
90.67298498473505
91.53529697296518
93.39533986259413
94.1686749676941
94.41319666451663
94.35261983595592
93.62761779969092
93.60864406294041
94.17723115254455
95.08071112369532
95.35786104758687
92.90904755693425
89.6249450767198
88.05645236830786
88.01814786465273
90.78551255017881
93.6879669245857
94.673615547876
93.08151390785484
89.78948291816359
87.34103644826672
87.07475872085159
90.21186774521537
92.88289074174895
93.8548366695465
93.41917675303227
92.46909570110557
91.55070721247381
91.36842152665825
91.24492258077417
92.01060826049913
92.98862561247655
93.42612272504839
93.22334760231288
93.3039830779158
93.36319435191449
94.6387771456731
94.16012157887819
93.09673323096251
92.19481187576086
91.48487391855099
93.04940826258469
94.76070533665565
95.19658952626706
95.04230098676322
95.09791892858158
94.49098536469579
94.36887291855436
93.85598424669682
93.9173804787075
94.27986175768974
95.000788323964
94.73068778518488
94.24222215643813
93.50350083976353
93.17865767934927
94.44786212899534
95.76768280007576
95.803346600794
95.30314606546847
93.91735688924439
93.39177115017306
94.51460700427693
95.52839021495755
95.18717745730693
92.3162403543921
88.87851438434888
87.90678771743134
89.87456581340237
93.77737606080235
94.25625447882896
92.32433078144639
89.21159185214786
87.88588004591205
90.48051421920603
91.67039428481291
92.8408366668391
92.46920115300843
92.14344548155371
92.68583535810733
93.02141188649095
93.95770263163864
93.90544889685411
93.04372294168404
91.84193342776642
91.08966340911866
90.74320270547575
91.96209020711649
93.33356810396897
94.25351107176361
94.85845895580314
93.40660739711439
92.17846375325695
91.4731347091966
92.38560381146317
94.3491634246862
95.15973435803801
96.48703491068483
97.29851407374788
98.75447222170935
100.0014627208077
100.37803070012849
100.0187573303768
99.37278498241835
98.82648265218972
98.45089675391327
97.25925226165621
96.3353701221727
96.10228136032539
96.38934035617262
98.44975415156314
99.85440924762236
100.18384273091779
100.11479922339262
100.02886509812281
98.58979150882887
96.69339231751736
95.66633954542175
95.40032656203574
94.94114625441806
95.07570437615573
94.52747391480212
95.68594019684157
96.40099210362779
96.47366099405019
95.28631263609446
93.55320606639435
93.76717568089731
93.8299798357557
93.74651240174377
93.78167776358197
94.13984584434534
96.01041213337055
100.34013542543737
104.68997586064135
108.44146063489885
111.77157324817941
114.14887547993978
115.18521339154795
115.64450470205232
115.50425340454568
115.85339609870191
116.3802838347427
117.55750217656927
118.20135619338166
118.72513956802361
118.92137170076678
118.09888873222431
117.32924322491617
116.69662879427375
115.94473721568649
115.45856864071266
114.460147053514
112.99537073869533
111.72230704120628
110.76659607703188
109.15068327849677
107.6804700372809
105.09795995798929
102.54487614338807
99.76330849374494
97.96675935997145
95.93601018710055
96.00633302802139
95.4181471134192
95.15967675450258
93.7707980556397
92.64199521656285
92.48682445662097
93.02204370999348
92.70278853945484
90.62085778803471
89.41065982722922
89.39037989573903
91.349739968853
90.91546509922254
88.93181617154941
87.72903385549182
87.2844197781105
88.82819375304675
90.31230944705075
91.69365995669995
94.12128146207765
97.39463354468491
99.89733749600607
100.90818250298989
101.30573052664725
100.59299598351409
97.65203422926719
91.99899012323877
88.46473892771695
88.39089618365
91.86627989516779
96.31488911985507
98.10603995170601
97.91987439959372
97.315832694633
97.37738789246542
98.7508702307483
100.75879602707813
100.10403791546105
98.29408157451729
95.75523286220862
94.64751974200404
97.33875538388973
97.81759621486457
95.20427305772678
89.49653890048735
84.77586467885946
84.20288629750594
88.41150712777586
91.97681930450273
93.3215992381371
93.09779478838709
90.10205854662226
85.58101141799571
80.79664392602987
76.56134568125745
75.30675473203759
76.56499098771575
76.09053135738797
75.07270922091246
75.34000024362909
77.75434897237966
78.87086394363766
78.61268570745158
77.2852166406588
76.29962674083758
77.73649421117582
79.36191496187931
80.75434351957936
79.18944788561224
76.06319265774124
74.1839777049455
73.52200379482002
78.05504026631735
80.8054262028439
81.4367397130288
78.81482922256889
75.40860525031937
74.21920930794823
75.52534571158317
76.77710790585037
76.83529676321176
75.29197997122829
74.13457618393622
77.35219610952795
79.16429873486018
79.8137208890526
78.70384183585523
76.98851621656759
77.25717494467449
77.45219131916575
75.61353660197791
73.67885895661273
72.28018974415463
73.14839864237216
75.45332125925354
76.19434856223128
74.73396544743457
73.74007750520443
73.9855636522537
76.02479127919347
79.01080882109936
80.11430033472772
78.49889109194382
77.89134654724157
78.56044586026495
79.34341769734415
79.83606902096263
78.94122485349686
77.57261704035328
78.99137983618446
81.12075599820855
82.12482398235575
80.62845753796884
77.26517246686328
75.05829404441471
74.92556383013117
77.12232780801747
77.93440647340141
78.16763128789033
77.71414910873379
77.45440803220171
78.58221183065402
79.27177689207002
79.05091482506401
79.22977688236149
79.33664217006557
79.84534288709429
79.49190883542305
78.84484821223641
79.77319512437666
79.63875915125831
78.19984256782212
75.50364005598514
71.56152756218248
72.74973752490826
76.54027615621959
78.29812656672158
77.82440603442267
75.70076413283365
74.30341736749125
74.40167292716083
75.07556801575578
75.20829943752504
73.14752131818929
71.89003862964461
74.96286902905781
78.43454040771454
81.42772530976318
80.57781799339682
77.65743343513547
75.82935283891132
77.25338083093516
81.29178628682963
84.25902059465095
86.22378169636984
83.28177049900587
80.18769367353792
79.18318547569386
79.95401166595356
81.15951734835359
78.68456613873136
76.25205866292481
75.2338625813219
77.59956568443445
80.63267956821403
81.4784916959577
80.56573725457658
78.79293694543121
78.7410881628805
80.86592626596016
82.96455130686964
83.91128885568719
82.32703894688555
79.79019070537782
78.2494192187006
79.0771842625223
80.7515472396672
81.46583923136556
81.17905500899782
80.46499777584214
82.68517152595453
84.5279098815362
84.06713908082686
80.64302773584706
73.89629803078043
72.53749038669692
76.30925306082806
79.98924060843113
81.81234376508824
79.04193992674725
74.92584252040113
74.32483688313727
77.28415783146517
82.45788667261634
85.14596695351824
82.99491834118865
80.52823636107364
78.97662887349298
78.27683902854
77.53655209749115
75.32589739174253
73.26519512424665
73.60592847153448
76.71858589136201
79.30567626184371
80.42488174141143
79.45873765831229
78.05846962691821
76.00987895325895
76.92660296061942
79.06259277373127
80.67548433803655
80.42334881349294
79.21505410684169
77.78039935586969
78.15796005916022
78.74498791536837
78.98348205585881
79.52758539031706
79.5442411749263
78.94947496231012
80.64026223165584
84.13102553101344
87.56661009802988
92.70085226531829
94.39642229889373
95.63973446795102
97.29381161537542
97.44171469541145
95.43414012237876
91.5600433877497
87.38101231200486
84.81250445214297
86.50535111344655
88.90759540082675
88.74374648783231
86.30929452084867
83.63187027530822
82.22545018964995
83.41479560858909
84.53262008096388
84.69223929779474
85.25415662632925
85.48027231421237
86.1139475936874
85.16843597110196
84.46505737562934
85.09571079230702
85.95452042654644
87.16041313142642
86.86537445785103
85.54746205561189
83.51242178724604
81.09400646709233
80.52295150132184
81.2122505532436
81.68269348461394
81.39644428612351
80.22282770089183
80.58646090095608
83.4627353818685
84.16814445548182
84.53682156259595
82.420804049164
80.34359139073217
79.29391983186999
78.28257939542465
77.27316028094646
78.04611862255858
80.02471326015063
80.39224102239075
79.4325675557096
78.82958793532076
78.12025193592319
77.47232202809518
76.87523599207091
75.34463823312925
74.37112907041397
76.39369224580685
77.59754262953719
79.70324522791456
79.33113084655461
80.2561370871734
80.33362072124805
80.87715341003886
82.48595427953552
83.44097823206809
82.6070190489132
80.79169561723812
77.93455202066217
77.86651986739076
79.58961361869743
80.23675645161082
77.7604928888569
75.85955490851251
76.07211172477689
76.80562490944891
77.12707336206293
79.59628196142137
80.67299829353085
81.32175459685502
81.29727079877712
78.82760326622088
80.07517976529712
80.66467509813785
79.51913946228741
77.05098630088051
72.70083729626019
73.55581267760812
75.95763260156806
77.10368732492468
76.05805823112117
72.8205960003367
71.74309123808729
73.94560934220607
73.17363865007512
71.95643827473366
69.2248151166718
69.93898572502506
72.46328659406923
77.02308995887557
78.33739897447029
79.0198327981609
78.45654164449402
77.60021844126851
80.6647876816431
83.16128524060784
83.3991385307578
81.3752984635826
77.30804873890412
74.41753093827793
77.05273448742346
78.95649683695677
78.87248179400734
76.88914174164785
73.97424916089689
73.90642352211528
75.21954379814544
76.16618936308699
76.56643087988041
77.49895228737527
77.74834853670353
79.19569062316444
79.64690931651032
78.66808455477876
77.45131700307527
76.93541414283372
77.71485579573725
78.51297982477307
79.30161645762114
78.09069867547888
77.14188874577752
76.5854012228465
76.58121576273706
78.11136005567934
77.77590408551893
78.29285368026974
78.0144179855799
79.26689137648334
83.08736459049638
81.76496311873846
79.50965472314735
73.83727788737565
69.71057242265815
71.21240147022563
72.46523258882843
73.23895653706376
73.35603265997017
72.47744517718348
72.96068747706762
74.39515944594581
76.3420998205292
77.79591440450336
76.06880831879084
74.40250464054208
72.56583556348532
72.00096308924975
73.56964970080054
74.87163084474408
74.45690177918854
72.83974453746765
70.43961968648914
69.02351836619222
72.75138044972613
76.6128083318157
76.49573676591517
75.5250433948985
71.61710807552764
70.94503500334278
71.6063508168076
71.64560582813795
71.06859211176662
70.52776088962757
71.02360355277835
73.73392526469466
75.57098491770289
77.74996104319578
77.96209878553067
77.79000256955692
78.46769213102368
79.03550157017081
77.66113738063413
75.44692122478166
74.51212470631128
75.32250467958562
76.28998783007268
76.9672950618545
76.15428994349622
76.56588051740457
79.20604833964912
80.44385026415776
80.51707949437247
78.97840766188989
76.68391880539161
77.8236900903737
80.49604256593767
81.71232303010925
81.9381387318711
79.0662354824207
77.6291965897673
78.94857725154857
80.38769161845653
81.35106366010127
80.75467943243558
78.94360870717409
79.24661543099214
80.84396659832964
80.53433004325134
80.3337389522676
78.88001544915035
76.20089649651226
74.80701470210398
74.89757092970109
76.41548880492793
79.09391188455015
79.62622931840477
78.20167998942715
75.7534195165361
75.02248451987364
77.76865109555962
79.24531645645763
79.29152690533896
78.93619177342063
79.10151308711517
81.46141492554426
86.35723425124934
88.56050944627447
84.21965960355338
78.8247698358891
69.82547297607202
65.07008698537274
69.127396089825
73.91021712255717
76.08793277076117
74.09834162101184
69.56867413218554
66.72767854901247
68.02317138612202
70.88862649316982
75.52984158339615
78.21251461329686
79.37289635365866
79.3630417791835
77.3144168495141
76.37680895903645
76.5791738815594
75.79795921571628
73.54239396337185
72.12808859081201
73.19741964861788
73.99061060217014
74.29482042650407
73.8291224679595
74.99200743519731
78.83312168330426
83.82006929658372
87.01189912400089
89.47010880944768
89.02133892433174
87.35862527400741
85.30571239806957
85.00946401734097
85.32964597683346
83.19228993266225
77.57125168661902
69.77859054208145
66.92561173177222
69.28896623947124
72.5897273974818
74.13366141675418
72.69152493616097
71.8265394727686
72.38166365708071
72.7856210800963
73.92341993358497
74.28267103398991
73.52061217195812
74.85209182295807
75.6810858475909
76.7089256716024
77.8504218443284
77.37842178347258
76.02225271114261
75.4819600642358
77.20202090664324
78.36740280577857
78.30054506819823
76.70391530756731
75.4765117652011
77.44976196164981
80.00726364103112
79.95087888553573
77.09735378558976
72.33770431560278
68.00082143981484
69.28783702777977
74.68133471705735
80.34382234946877
82.14042163625884
80.35178963302259
79.24205517686832
78.37763307260431
80.50042558702188
81.09183127335633
79.26868547939779
76.82358809160608
74.4080202430615
73.6200609308336
73.97366071822796
74.7463929976679
75.27661257186244
74.7801899452889
75.2618657479888
75.86750068537714
76.6370730259667
78.77772688825887
77.62052369852194
74.94840764215982
70.73212853191932
67.43636243790694
67.73911975880014
69.98703705385087
75.39929191398261
78.2739305969489
82.76548640447758
83.76874711339651
82.34273229840434
81.59117148228889
80.3499314462453
79.70536310082406
76.56371706699433
69.68126567663049
63.093752300762915
63.67261381766104
66.48224082237739
70.14279413074331
72.4876145326516
72.38878045792472
70.11720880935862
68.57776508800052
69.4843512785142
72.33127877596377
74.33685598082351
74.20755032341546
74.4665641120907
76.04233709451165
77.00096534061784
75.35564243152962
73.24728079987571
71.54500224349907
72.20957796762838
74.31475534215775
75.33415736926973
74.38674855139905
73.00920782246187
72.82438974697827
74.37701811946582
76.4873299787533
78.0540570332695
76.14498798755625
73.24323610943568
69.33716577997758
67.85337265351383
71.0113550192284
74.79930889452274
75.79643715223531
75.45622292120954
73.69317907601732
72.765504877026
73.81189277570631
78.34668053822085
81.17822288222808
79.52628735600268
77.58960031547988
74.33180593442947
76.6815843072693
79.0576825989365
78.65623831677492
76.59939565785325
73.40053220299373
73.09174270130404
75.19970774681171
76.89645706271669
77.67623119451832
78.04674465288105
78.56821068497133
78.12684899887623
77.27802566980155
77.32235225050188
76.38905867493422
77.14299103442485
78.01076627938632
78.25762951103135
77.62005715759332
77.10635985272201
77.80913182583592
78.69905235308643
79.13704793681832
80.59185449175763
81.80391247690352
83.72116626568507
85.06819042862475
85.87378852245266
84.90913354570016
82.55073947717358
80.93678075377805
79.18693056302035
77.478752695001
74.7305033299603
74.27089906118334
77.53538667348491
78.13808333781569
78.51968285169163
75.91734868554781
72.50162551451119
73.09975403844352
74.22962931675457
75.1603194055316
76.52791175936323
79.09912578685478
80.38048466808615
79.77157624049481
78.39247783301133
77.19689639336633
79.01290726978498
80.34377868291396
76.88143549425907
73.63458367674924
68.653186543607
68.0466093119096
70.79328258617551
73.05643065906422
73.84988084715238
74.11545338213892
73.21108380657697
71.8956908219676
71.99698217305071
73.34213752824117
75.9685881093307
77.5991696003777
77.56996663196588
77.19522127124091
77.93325835061252
79.38263543894192
80.9103385571099
81.05783019885963
80.54902514095691
83.01953651608092
85.6777654983913
87.90210025268674
90.30118350187342
92.71693802450638
95.34925579384827
97.42450572043646
99.06784547147241
100.41641581894567
100.77218776407274
100.59493038361585
99.460709735741
99.0953613419105
99.78368020663132
101.02670148489324
102.6419456084905
102.53728809555786
101.53269294242585
100.57081981880981
100.14589921976454
100.72853647169411
101.4554631528082
99.90379663015626
94.95427928588614
88.68934368008733
84.44156557889816
87.03398847000042
88.62286628922507
88.31065489553495
83.40143886189438
80.14128418035375
80.8097063735454
81.80871042036057
81.86139173394704
80.73310350909655
79.31469160940907
80.30191265658166
80.13785805325999
77.77700599155042
76.30641644972744
72.58067287911669
70.64788773331203
68.44512777030606
67.20588355511941
67.14962294474508
66.5773227616778
66.12832133630222
65.16143681727388
63.96209486243415
63.930160264490745
64.13941830422941
64.46991279070697
65.5370328027908
64.85627527040423
65.31137094111392
66.78148040301055
66.12674327211066
66.48587199104172
66.00737002005049
65.80441008944499
66.27145906331182
65.38030433334494
64.98398744746686
65.81945497558861
66.9090548397455
67.92847021407638
67.38145375373612
65.26119513062693
66.07171594120734
66.62289299126567
69.91668295431433
70.96846929840225
69.97170642509354
68.79214104777014
67.05535132759259
66.71427380539664
66.79166272772518
66.41036662324085
65.87926296817349
66.03985747674389
66.3352726331454
66.71359305107663
67.9576381240819
67.67988961376915
66.2359196411029
64.11425915590422
62.23371856434771
64.78255101125582
66.72286310971896
67.64101111602128
67.79974851895219
68.07385629813096
70.03489911210498
71.23513477444192
71.1488514285712
71.08235797173073
71.12949215663662
70.15301961858918
69.30019506667912
67.01427062720393
66.16065325126533
67.87829316668751
69.13117141087531
69.4270143732411
68.6184082521514
72.05234683123156
78.59940892429348
85.43889001435898
91.46082030200665
95.13817647837526
96.74050009744064
96.84438536616135
