52.904905990895365
52.4832848965976
53.59904251079873
54.5763908834358
55.99652207112299
58.39260088871209
60.498293047134375
63.050494831768766
64.7800365045223
70.05670870373598
78.59369516344339
85.43585133191996
90.74691430523465
93.35254279380528
93.36749476488018
92.08661964755586
88.86880208647344
82.79785189686561
76.0301049530612
68.91099299403854
64.83747392647022
63.86434348868584
64.16955613090404
64.36269942057987
64.25816943873153
64.37451955097637
64.31247743376028
65.50786401709459
65.42362578238831
66.4290843834776
66.9611354768643
71.41192931319333
75.55424106901779
79.89324369103643
81.7189162499535
79.2476467148492
77.5242329851428
71.55130170758797
66.21605968806007
60.45065397285492
56.02474696958618
52.33938324416201
52.211113305186394
55.84781287587106
60.244667391909275
63.38237444527892
64.8018555119061
61.2588789053977
59.37550647971779
58.094594037617654
63.88134241401058
63.323103716096476
61.63456795902514
57.03105246202444
53.300436898808734
52.315092093904376
50.51344027732537
47.14692709492981
44.468145888078794
50.55027186685519
54.551332732349316
53.88861469871017
53.554424119577675
51.17544649116737
52.57007920614515
53.92653578469406
53.982986616665045
53.66766751026952
53.05559205573821
52.61322835677303
50.78130233701513
48.31408833143949
47.68295359439753
46.91195873567447
47.01266742117443
51.22701688920282
53.25620027851156
53.91645135481125
53.08077854216028
49.76673416550083
50.57255630232282
49.613740421093276
49.01099333102633
47.891918291256154
47.92408900432647
48.20546186004608
48.63778036184013
50.17300666129176
51.40426665600139
51.40426665600139
50.398115311275326
49.249223104438535
48.02093198801719
48.538182301712915
48.736892332424055
49.04526654113929
49.38500475145966
50.496557598735436
51.3492758247693
52.278364398758754
55.28645082032875
59.12635124843262
65.59679657576618
66.69268245070133
64.1525540147105
58.28880192765094
54.6220715154033
54.5069078670811
54.70354139206863
53.626583801740004
52.443458755590825
51.579580610128595
51.21165015672117
51.827668350835616
53.67003501194176
54.198590112918986
54.28047187273345
53.01327484446958
52.55015995785002
53.98038919838003
53.267269357453515
53.064277664642795
51.98360885954031
50.959520164392664
51.246296188870886
50.76787644772397
50.966120108593884
50.228371025252315
49.69183090344228
48.807992519603886
49.53388456192524
51.35689166854234
52.72908203902872
52.69448624082995
52.11415515365428
52.690099736704745
53.51859887746352
55.10000405927115
56.40327606666616
55.88442323716752
56.18195065065226
54.7278733241439
55.901302318249556
58.484944830658456
59.123178506650746
59.37401489744424
59.60337734529134
60.65068874971731
60.59186930877667
59.51887273426034
58.45179731189021
58.117031179510285
60.02103211320314
60.07694488927247
58.39961584226335
56.500527252649064
55.15013498104037
54.85538534254675
54.43226809197813
54.48764620662422
53.961291728936516
54.365126032950734
57.71700488935921
62.11696463104886
64.16113901609164
64.0629726347184
57.236733024293535
54.52305828437705
50.95364267050356
51.905714587885086
52.53659912765005
51.678810112529014
50.85502149167932
50.51288436323169
51.579849751996015
52.108100417388506
51.51005181263884
51.11497907873552
50.19922216858796
50.41029246025079
50.86608773744522
51.2581920359903
52.201099323054926
51.751336198974776
51.69685267168009
51.90090551147896
52.30943451132822
52.26563497113449
52.818565423542175
54.04123398672082
55.87090083827497
56.73763487797735
56.64223429349607
56.262063941544945
56.88593992043407
57.03227915298155
56.9957813775024
55.29465303331159
55.175248888507866
58.554074127025814
59.44069529276214
58.62944872550782
55.94507492542307
54.39818353089616
56.45147786878672
58.232434297957106
58.71983163897155
57.075005127740155
54.63096174983957
53.75541912180384
54.42487779540618
56.80862307235042
61.28396910899357
65.14906443125153
62.54848981199775
59.51577545396054
55.38461402129874
55.876746055450866
57.128770465851964
56.60088539814168
53.74958890841282
53.708149695356084
55.57698785441776
57.98101813299541
59.314626477813626
57.99752666746005
56.133752271318876
54.48867868921448
54.85800186944713
53.70141016820771
53.688777078444616
53.158506081077554
52.737974805246644
54.86740176204943
55.55733650888177
56.644888738957015
55.352919633950954
53.537315499764894
54.891267028250645
57.098032116716986
59.90423159308674
59.94560907711504
59.19169953771221
58.249297003885694
58.79720208539218
59.75862740048361
59.68285178291233
60.830499588910364
61.217012600754025
62.54513842321281
66.3943653999666
68.95678141322284
68.88577371161304
68.40266013661866
64.99534497514692
63.55233169833964
61.483637998557455
58.96862035565697
56.9887565779239
56.83693714139678
58.51837997456236
58.17671648571304
57.2484972797483
56.87012004709345
57.58756450991688
58.37100977039167
59.20245454803668
58.94317826991585
57.12979859762725
54.60993683682677
55.025905324528175
60.16154122402012
62.73208634004347
62.228192415437995
58.72797812418672
53.81977201222021
53.62794577473637
54.9457728819737
60.3995143112849
61.92826757518328
61.48449037022431
59.881832689494104
54.29963613332541
54.939466698181455
54.639799600557474
54.47356185447191
54.1254025905258
56.006946812140676
57.073985637800185
57.43652578830744
58.30104272190967
58.59612872870308
59.90812527929593
60.42191280663188
60.60912873205674
61.102748954798
60.985384661522524
60.40414370508878
60.4569807224575
60.98304337953133
61.4594436741178
61.76920874580768
61.05148600213077
59.597052865196986
59.26971214284276
59.91577738504785
60.91604740275347
59.963252123060094
57.19121482482266
54.77610275636143
53.44315591417266
53.54472203315682
53.311220600843704
52.938079159382916
53.35243285121292
54.2225863469549
55.20294663415009
55.385470892493174
55.17972466924375
55.551860453617614
55.42231390496738
55.11181205561966
55.25924042688635
55.14527199186761
55.89478900619821
55.061705408264295
54.451192657069264
53.9493272048929
53.98731641175579
55.18019091714725
55.12612890892706
55.43281635132224
56.31707300266295
55.64353450450069
55.63525334899895
55.88356482330878
57.34486012071513
62.57419130627932
64.68592212596157
64.79209113163593
64.01975824610335
63.294738149062745
67.28015172783438
68.3948863894735
66.6817551229407
62.15948567451029
56.29289028599956
55.195725968429635
62.629174673676125
68.17658163785862
69.3007828359998
69.62504416530234
68.5251381349147
69.159037082194
69.20555604415601
70.09010352045169
73.17673048599511
75.34774784664575
81.12838778051385
81.6708894691223
80.22008733830711
81.31002955644416
83.79375425327527
86.25925694469313
87.0277749811026
85.5889205894893
81.33220048885246
77.80266143872699
72.68643923368023
70.28337420817434
70.37443096983719
72.200733382702
74.91779670609964
75.52860301838837
77.77285316033118
81.58248930271547
81.94383255664134
84.70620973200835
83.80744237668027
81.94507820942842
84.01088188813463
83.8975861308405
83.98467574182115
83.46051782690597
82.27412743457595
83.22174242352695
84.87193390026799
85.88382798320836
84.47122602506221
82.66130931607454
82.33349618261333
84.81227387081829
86.90411747488554
87.02602377422767
85.32603748981032
82.27321109261354
79.59504047929303
80.02077340163848
80.59680102091744
81.99454569765271
82.97120606329277
83.3212879273198
83.16382063546835
82.66760518991518
82.32865613054742
82.91230100445279
84.11667641884749
84.95250645693595
85.40997756823094
84.71512476465594
83.60459254618485
83.18285763231876
83.14965710111026
83.36368261501043
83.4675897075829
82.55103075755942
81.8894450608729
81.10878001798923
83.09399978120521
82.08256584556902
79.99050026086509
75.76769415909258
74.03883365071933
78.86747341426475
85.10134813908091
89.0690849318189
91.8706088492338
94.15786433033956
95.41915940921864
95.2117852601376
95.26189802122572
94.95980437784947
96.01071944004062
97.31632858202272
97.55301189454873
98.18837121702829
98.38159342139099
98.55673682631733
100.12767400309131
101.48650185467855
103.33474845145675
104.79636265267762
105.56948595258453
106.23519997898478
106.79518780550225
107.213618949032
107.72621894523203
108.25447516778385
108.3817205828425
108.35307319145089
107.97444314877829
107.35631970811247
106.56060945329419
106.2818627543542
106.36693742988703
107.32966537532079
108.50064111710374
109.29769893078628
110.0616587080907
111.21127230460338
112.51875132961781
113.42496354087925
114.33933284015176
113.63229891244828
112.16501427449789
111.15184676106495
109.87608906385084
109.62721311037386
110.28496053846435
111.28300078294853
112.60813021642743
113.42905218750029
113.21049524613184
113.4534092048691
113.71916570175756
114.26961294485808
114.40334968402776
114.85128394728999
115.4938639874576
115.76312458596546
116.88940385408726
118.20366600956133
119.19118441151106
119.9374187880463
119.76014083719477
118.65980117235125
117.3338743848498
117.11541209718145
114.92141111746656
111.58109320310233
109.54296190332511
107.58668773969497
107.90495570406355
108.40744907116573
106.19620047928355
104.07824427048351
103.48033101918364
103.57738644620801
104.46864143938758
104.58197501918033
105.5044579974226
105.30332334671654
103.93219085797175
102.20267541418107
98.84583331297189
97.52487697781991
96.73137058087208
95.11299832205081
93.47391791009274
92.39813650742683
92.52539404928471
91.93460752901984
92.22022580858975
91.8158260951128
92.49022324230202
93.64712059074856
94.29826851896928
94.5662038824359
94.87452119365173
93.49562287725242
92.06149050271073
90.2703139790903
91.54214177165025
93.74533208000183
93.13722722215424
93.16278935359962
92.58663280464968
92.43192235867788
93.1419197110801
94.14440616243184
94.15652949251125
95.00094814287233
95.56068085261826
94.42721168701878
92.01825550321978
90.29844447118197
87.80450569167651
85.30580917523739
83.64913044581726
85.61078618228433
86.36188539311874
84.01337030457348
84.77053168378532
85.3284729661105
88.34715567062148
91.35227744694163
92.40081922616277
94.27246885046102
98.69938326862821
101.4834607376687
102.5758238821774
103.8974494357902
105.1806031726559
106.36212534842056
107.82315481226826
108.65820272651848
107.01915067303936
105.15330610125123
103.2070490806271
102.13276858273755
103.85553770515814
106.14065394974675
109.20294877640208
112.12724996055137
113.86479406941984
114.46862391590243
114.9633444909499
115.606175437223
116.2448707653901
116.7872484956702
116.62802598396034
116.8249680548075
116.93451422069171
117.0201013831247
116.5745840284831
116.10007392960634
117.03470062731965
118.94545936923664
120.60624744218163
121.11389471694093
120.70603496749683
119.60253152369229
119.1324346646525
119.35061707123437
119.30478287348299
119.18713359941837
119.15299497458346
119.38655317538418
119.55988856473788
120.5194476859456
121.13818349599137
122.0768448110378
122.61702103103838
122.86384913011592
122.36711124783047
121.7255189515514
122.01448178243722
122.37198045102251
121.80096105664556
120.99208284062064
120.48600264793598
119.87707530074768
120.14428520782849
118.99556949520225
117.16530440443282
116.36542286551379
115.79796514288198
116.32713258945887
116.69398959197623
116.03547685594008
115.08282262034554
114.34163748469749
112.9253967434097
111.74386688758007
111.25522394091398
110.82210708426199
110.66009564914245
111.21549357101432
111.09017330812024
109.5365124222144
108.34133023840037
106.43394466494334
105.13618150040203
105.78622856660097
106.25947065181582
106.98484930781468
107.32853242629137
107.11059862230923
107.27945826877168
107.11561166117322
107.83488661218755
107.65232954513088
107.35270535529452
107.00678674178867
106.46150813836276
106.6250100334621
105.7712542510226
104.80396719342433
103.49378127206984
101.36598324700185
101.20857569453308
101.28202721849186
103.3032345495589
103.90352144622896
103.03080312505787
102.05342843918973
100.36048321598274
99.36649515249871
98.18469383177734
98.79835221211239
99.47417638058363
98.73838478865683
96.19610849304439
92.30400076468895
87.22669297226088
82.68532389608751
83.35516759772774
85.44592128773857
86.27514749659238
84.19058990365777
81.753769134437
82.63606468556318
86.83897341405613
89.14712737245986
89.41823157135126
85.7458341971284
79.79781997772733
77.03749647861258
75.06258813314126
74.9281669138969
75.28081039675698
74.41478279783507
74.27007741135174
74.55884708583628
75.13792622744558
76.5327259307516
75.67262529241059
74.63699241998967
73.11964844602589
73.1498237046485
74.53223004995894
78.74107556278854
81.42062306874413
81.37991474785449
82.3126834512221
80.00839033415352
81.28881660373327
84.92621747074614
85.49004224671208
85.00685934354284
81.24546023243593
79.36574108217127
81.03189780716784
81.50508233428783
79.50990031792895
81.11545848375275
81.14501284080112
81.8378360858694
82.67181538280788
82.64854313795259
84.8862103808428
87.36870486993806
86.3652926861609
86.31081107270712
85.95890837202643
89.03450225386189
90.86767518402498
90.17997157960471
87.24585269788393
84.60177889520729
85.6264236300317
85.715261900738
84.95855148539867
85.69191747677773
81.32254660529361
74.87601253351917
66.96804851690545
66.0023178816315
75.04709591785874
78.53643097079802
80.15068980408759
78.75609806718775
73.88800178462655
76.86153657394514
79.10966182680282
80.69506034222914
83.00984435130681
84.51829597560761
85.05469889315246
82.75475446676214
76.83551460470962
69.13785707173302
67.08208155590447
69.21069730101124
71.27655344048807
73.55880105247913
76.63646565921152
80.62806429643393
83.51705661850646
85.30620293934976
85.08479339175418
84.86296105727426
85.05194339354921
88.12944891905249
87.97742024315014
87.60253433211705
85.83324719567872
83.56104136367829
84.6788543662613
86.49068957998827
89.10116586733747
90.13270014622516
87.2491477317869
82.26641073650521
79.04051569088844
79.92064207682007
83.83054277344529
85.80526992033356
81.31637574763612
76.4068120027032
72.75854208831618
75.05418503187701
81.35332032667326
85.30251515521184
84.29026367838202
83.52306097359194
81.3503190844596
79.1653750393171
79.63966583989242
80.04890415135318
82.00231725736117
85.36996897570194
86.04063445445892
85.91564023830574
83.51211690318709
80.07657892138414
78.96006156038402
78.44249722502519
77.96655813803885
77.83212958125803
77.91147180831827
77.21073934811098
79.45088002371725
79.72522604417505
75.1714185941304
71.20462207153425
66.50570167029029
67.24479215059159
70.55117389561403
73.51068860324726
74.85343131597702
74.82680835089224
74.47928622939484
74.42729688508767
75.5924768738795
75.92610263284975
76.24772792436447
76.54800842250049
78.76863305462636
82.53750102831646
85.55699731877401
85.58371736532428
84.58454652009499
83.36031836183261
82.45079895369761
82.80633142131336
82.61587586863052
82.56058870370141
84.6421143620755
88.9325009444782
94.56191646809374
97.22587723509226
92.0934910067307
85.20129198824566
77.14157087520304
74.40454229280994
79.12502362826675
81.42816809106704
86.66149262441365
90.29308372332349
90.32759024205663
88.36421190103884
85.54601066894942
84.93131215762604
86.30846686620087
86.66815232449467
85.6698291849251
84.36635723471962
84.81096175094467
87.8957919976273
90.8037375133864
89.5177645250697
85.34108712222343
82.37775672091057
81.28507286619413
80.9128510302047
78.3548063593734
74.95864590726457
74.03435843240896
79.41990938565553
84.01309323053297
85.70109096455658
87.68059969003862
88.71266031439067
90.02268664991817
90.59084897544007
90.29745959072055
89.55754599334057
90.64658156474722
90.28665093547257
87.54900721274092
81.18361668572962
74.51661984049208
74.72144984462489
76.99568088363046
79.1707190000705
78.82269403544035
75.04507494803923
74.1286545350403
73.46816293733514
75.18144818164467
75.79481793786307
75.9111967415079
76.94298543983342
77.3800872701292
77.59290685608359
77.21977792830599
76.46942194799543
75.79546259320449
75.8499796461206
75.32786875408901
73.83828035393151
74.33167500798407
73.66559869939857
77.69521149556834
82.0309348834812
84.94673205288585
87.03631026440324
86.80372766395816
86.96481063867631
87.92051382978832
88.93154422879724
90.70207719697213
90.94291347490618
93.02341826403527
95.21339207079654
96.67317743857781
96.15541133339265
93.77551376696056
91.1836264727865
91.22256974172304
93.08970222830011
95.19669810878509
97.5894872586493
101.03705088317543
101.68207144631617
101.39508939431614
100.32068564619729
99.26142433547345
99.63051906765277
96.18060674413377
92.76547113343341
91.09362461614539
93.41618434346817
97.80229736562994
100.5732407948183
100.91231549191889
100.18773745587151
99.5998752494333
99.87040836442367
99.77114881214231
99.69221161396382
100.458230031179
100.84740760896148
100.73397195213958
99.6422638951897
96.97250329436127
94.0647013928637
92.73269060241421
91.95574548991391
91.5896194210048
92.95128182400832
95.73271183904183
96.17867765221456
94.03699585673638
92.4060546168975
90.45435505787638
92.61318739042204
93.72109236871478
91.74379388534713
87.94057887050232
85.29027930839804
87.37855992472953
90.84086966005121
94.87234297459192
96.39830510750761
97.87827214216009
98.7768648438309
99.15789921930838
99.50801573241698
98.94928485131202
98.41128143737876
98.68526595279592
99.14121182617941
100.27964706737968
100.33948740324662
100.25760942174378
100.11901705299505
100.50793178137691
101.67492002355301
102.93398447582766
103.23125259436186
102.5837141860896
101.28408078351677
98.8978271116078
96.91835142349005
95.34235489775786
94.33628045478355
95.29361342794151
95.51278981554597
94.37023310695737
93.85118011140707
93.96654254813336
94.23329018450693
94.23868694832356
92.69100471815965
91.79396617028694
89.85917221814238
86.85793967263702
85.82819332215614
84.75897581591865
84.19529357652459
83.59141194466562
81.94497622658255
82.02339295548471
82.31568518405705
80.223266904367
79.17059804470586
79.64906058067723
80.38845271918679
79.79489524106042
78.33660649849807
77.30710226114725
79.6789483310437
83.58305702873615
84.10912765701705
79.20826097432573
73.8492132928067
73.9545783851092
78.20165827413605
82.96957232344569
85.42816215303053
84.96423359179627
84.4489138971336
84.2209266291001
85.50823564017006
85.67242475438015
87.15904756841464
87.78745417165212
87.84337033484803
88.34616662381941
88.52007280381494
88.65508963389868
89.90991388122042
91.53475491301177
86.96532294599048
85.07795318131079
84.1787568904892
87.26049069295583
92.51548101325403
92.25913642685356
90.1394502538281
88.25628214030156
88.62689820368475
92.450827914309
94.62462356614004
94.72873105633056
94.20807190187162
93.59709533895398
93.8716181368718
92.25285844920049
89.3051150760192
87.26327700820015
85.70361631739291
85.18472919985618
84.44030079118062
82.15253828958643
82.431742157116
84.26751302620895
85.3811015081762
86.47854656686496
86.72882022125249
85.85919897987854
84.74767465647192
83.86060872676576
83.50878756632285
84.56631990154544
84.8470886539791
84.26140261085669
83.62828476078514
84.24739556234731
84.67294959851922
83.06413486057329
81.46906815004027
80.24229606802969
80.18153136824131
81.25593327867557
81.84323742413424
81.93862440381152
82.65735733645458
82.9825716498405
83.90551456558674
85.33082688208188
87.92624010548245
90.83326013814514
94.35812995892053
96.99862301384383
97.45362639445972
97.50387782641808
97.44486338544404
96.83501766234917
97.91874050442512
99.68792863541874
102.10802478012528
104.88353881533487
105.33598573488692
104.29671184897994
104.92579352925048
105.401603672317
105.31126713715997
105.03952052318385
103.19256689431788
102.16858419436129
102.86896740118203
103.65590446104474
105.56196027728171
107.03976059457638
108.09752761008222
108.02779769456718
107.79370178160474
108.33299140460375
108.68072175238864
108.74167039581727
109.11560613508144
109.11962116984222
110.02004819199692
112.27786852351207
113.55819931071412
115.02356099932776
115.42410812835674
114.82324255755647
113.55073007950399
112.571651065991
111.05599190163846
108.08760248720094
105.75768413873257
103.79383903120635
104.31150812999687
105.92993629937487
105.25339926409632
103.52606104081588
102.13899630271281
101.20253024705433
102.14348665518514
102.83811329069907
101.30966355467342
98.58728980391061
94.58560481046547
92.81766125252521
93.09274295813346
94.14600008127981
96.09335080103024
98.43746553367305
101.27381336605305
104.25368989522097
106.12438226851151
108.12464035159013
109.33551215101328
110.45447961827075
112.07196412341575
113.95728143687431
115.69239410067107
117.09936471499647
117.7857226696608
117.87360576200282
117.54528911251042
117.10567424734703
116.53738097966415
115.91477328051904
115.98468033120545
116.92397167284847
118.82140550438666
120.83974623331521
122.44834346679386
123.10320122791325
123.10398529440026
123.14887366921887
123.53752434149662
124.31678455359874
124.95731867010659
125.51865207425016
125.84628188108526
125.98579451696588
125.9158381816217
125.21307998491653
124.5710549908501
124.15804082399526
123.94396200856644
123.16792097252166
122.13235485536941
120.47379206103477
118.53318533974893
117.73797780603252
117.42717159914308
116.94122798167875
117.17378987323715
117.45339870044748
117.51975334704247
117.77469266990639
117.22585413321488
116.04761957098461
115.17856706104125
114.56294059950513
113.6033367962666
112.2969028416126
111.16271841804912
110.276530844069
110.27340722929021
110.8734037236395
111.73077161651318
112.63649680366755
113.95015195636934
114.80968049183498
113.95617724730664
110.9911650577435
108.47042897455745
106.16814225207915
106.103577384325
106.40577164458779
106.21955988752136
106.21405487135316
106.96713653838333
108.09444968527477
108.74079370366901
108.87793287355801
108.55867819696321
107.95850961175232
107.63390157378474
107.48511446006032
107.44360908925623
107.85810810604616
109.18289470998239
111.13917937569548
113.33700344554244
116.04901254168223
118.8360141795368
121.73769228315037
124.05614880323982
125.2816338899627
125.18715481800535
124.54691474287304
123.88237819861968
123.72006173859516
124.46177252908703
125.8121164920265
127.90041111961946
129.32626102354206
130.26311927032194
130.84425598224453
131.27907837873184
132.28472861855238
133.43177087123604
135.31185806945535
137.05124517502966
139.2735899089938
141.15803390403232
142.8744862815828
143.87134287001504
144.66511056078895
145.19241424816425
145.72587173674822
146.55021304012476
147.3537256310293
148.08663219849868
148.66192409191063
148.7173236712435
148.57784623212805
148.33010974693735
147.8915582929193
147.2383137213955
146.7452020568717
146.2320868234613
146.09014786573286
146.0330946636219
146.0489563576218
145.81010438885306
145.62270569926358
145.44182078055331
145.4139800296485
145.27533848819337
144.7778072199337
144.2328170710241
143.54084366638534
142.78138007778756
142.0603312813431
141.22882217970684
140.58115301186047
139.8310004576922
138.0495307016696
135.59377344988323
130.3542438332338
125.80558650068811
123.63795371055957
121.44552353535268
121.57074660841509
122.63036915303117
123.70317602894093
123.84918799956992
120.72399153875386
117.75675141640656
115.59362411076171
115.35818830456363
117.14595127529104
116.5097015803975
115.9661887010018
115.28421374992647
115.17853116966715
116.18007819414233
117.75832909890813
119.09068752641477
119.42078664577784
119.84776001329315
120.00861821374549
119.96106000792498
119.73848750751249
119.20261602450763
118.09979256831079
116.07840201481051
114.99923649290395
114.12102549473329
114.43739977042478
114.74171535493608
114.6981609597926
114.8341457265128
115.69937144550394
116.73746985660479
117.1326591459387
115.70252444057837
114.40673096086581
114.71276832516965
115.15187250818875
114.97038401257721
113.47765764864054
111.4606227377695
108.96662171355918
106.42938556169553
102.73031195042978
99.30077528112076
99.8585465115331
102.9297915724334
104.97222072076111
105.44849089138971
104.03572348687905
101.70220501577673
100.32041052070218
100.3545832048027
101.4426418253455
102.32830322592767
101.13737954395046
99.21353294591529
97.25359108343112
98.70966402816312
102.23277648885006
104.90140881259624
106.22889780144673
106.32872966776942
105.59582667874592
105.5829417444975
106.1002218448708
106.55108232834642
107.51141101360228
109.79355281222443
110.95715814332638
110.6905988054157
108.91315491743241
105.59925506197163
105.11915403291886
105.35004336222984
105.90449820505054
105.92011842774185
105.51900157692288
105.5992233434288
105.6187665600434
105.33764453432202
104.70967783830449
104.729591923089
105.93346692421102
106.65244636784944
106.3201487973
105.36792392235989
104.05705590741641
103.67480568853559
104.24933407319152
104.3884737316652
104.16803695827114
103.72613199404297
102.8051835113027
102.91245251350848
103.2833391696614
103.89506486696638
104.41189958817073
104.87113100947069
104.66835499620846
104.62924215168508
104.26914231012869
103.71204774543601
103.63246586538705
103.6251778266759
103.51224109784135
104.23709942515747
105.81490020200816
107.23657633739671
108.51667256901383
108.30297165511821
108.3087685523284
109.40778899754523
110.94883942924203
110.43697114244912
108.99358259430554
107.7021755633965
107.0671808807139
109.64035542057981
109.7337725029
108.2261551360706
105.33771973715254
103.30544122631673
104.1953516740249
106.82575825808051
107.94543478538573
108.15255828504883
105.32141811197772
104.04992851276688
105.38085457805022
105.83140362861796
107.20396726293544
107.54548966338787
105.49327940729061
103.56459956473564
101.19801351474571
99.32532182331653
98.65980486854482
100.4677491726721
101.89500101284695
103.58429316087386
103.83896723236798
103.39983195126331
103.71106526866183
104.26734807975639
105.80713333852692
107.87936694937807
110.71968547330987
112.28983869036695
111.98072820440917
110.54652740869983
108.89596699729142
107.55297426357717
107.60172339067876
106.6123702134452
105.43022766460867
106.31670964969473
106.71163711943244
105.82726795480372
106.51357862963754
105.90783408536949
106.86412220284318
108.27290094586729
108.1695042508966
108.46722195982466
108.89882433251567
110.47500057433466
112.81690156369801
113.63983763897583
110.6729683899044
106.81954463787552
102.93928919869083
102.55488434082811
105.58483972661162
107.0811027105274
107.65973703159337
105.74675695063591
102.54543054069637
101.25344635461119
99.90223084092209
100.74426498086288
100.0704392226046
101.17776474229667
102.34384288484499
103.86921077923125
103.80398609333605
103.0146141735764
100.80704448618683
99.23210902956905
99.0740167877817
100.12450758474078
100.72163312278744
100.62543858034034
100.54430004367636
101.56799476957555
102.90399343262139
103.74059922313833
104.41562378726141
105.94870983622512
107.98509972298572
109.5916175106995
108.93934129331468
108.23909740643016
107.03374348548667
107.23992979667246
109.25675808686483
112.41131193346197
115.10519850584731
111.58220564737188
105.09160891743166
99.02524214128414
94.42623829920838
98.1785448036585
100.63639705572358
101.81399891621017
105.12549582375337
106.65112348453812
108.28394519375749
108.69486654416846
109.74577790262798
110.2788991319189
107.05651714091856
100.0670913784502
95.95952796421426
94.27530417890533
97.7036920659957
100.17768573847582
98.7613879731614
96.43884636372735
93.94806092221405
92.75894395954464
92.47915935856798
93.4284078841337
94.77469851091631
96.67863628238416
97.51114304785393
96.54785968162436
94.95010659604083
93.74641162488378
92.12162278568687
91.97373010763596
91.47613578595109
89.76674685564635
88.21795467466887
87.65892707824892
87.89448487026021
87.62122822619715
85.54589265348531
83.32733958093543
82.79162791865716
83.64209994109294
87.32477210833676
90.94988921288045
94.80769409163423
96.66945129424916
96.65356030073484
96.73018458122955
97.49555911824685
98.62427424487288
99.59055470934425
100.50499582971288
99.90794258308927
99.88090768487052
99.95021031477427
98.76757012660414
97.627951234629
97.13234385401022
96.7741551064701
98.16004160365468
95.4779048238293
92.34947398388303
90.62884403176382
91.01895312828115
95.9896524180727
99.2335835289489
101.98022958790615
99.51448405986679
95.5229260248206
91.17918077841823
89.81215255165498
94.56970353197843
92.6737736815658
88.41906643125323
81.56642840351026
80.18510439100382
86.76289819854173
90.80958406486118
92.56391530011831
90.48766566571037
87.65072053563927
85.38694135054999
84.77824328004417
85.94064725146286
87.06114976425464
88.20967701177939
87.3202056811156
88.2352626359653
89.83344389810622
92.51988941081258
95.30597694749176
95.39450874224019
94.37769026242934
92.76979872961755
92.03186592622183
92.19244729468319
92.34504766482094
94.20539624795232
98.49572163703378
100.31077853741283
95.49810184969168
87.74140162774512
75.97029411133286
77.00083191322098
83.71993899596238
87.87163109259672
89.23355978117552
89.50961289699174
89.43958182070163
90.94258942530695
92.24099543623039
94.7900270055785
96.42092465849834
95.09378741845967
89.60467881802609
82.29956486100987
79.23940007462373
81.88671077891179
87.59974451295392
91.5428683686721
91.87358323663427
92.43924199656999
93.38844786752597
94.70212727136327
96.67874756730929
94.94813509276283
93.18236316755109
91.9280889358314
91.79531582049242
91.2293674254169
86.20046802925127
79.88273822062966
78.64296649998353
82.93905443674116
88.88950698126705
88.93418110172746
88.44936034628519
87.87121999561904
87.2044487839335
87.58509034253314
87.05719309644287
86.8849969671545
88.16261973616082
89.0516772886568
89.24836527684404
87.8213527159363
86.21098924378165
86.13746035208483
86.57393637185048
88.20945313006236
91.66801066566232
93.4119757238034
94.82672447103006
93.50360202594925
91.00686432890046
87.9655253621347
85.7634879914489
87.1159695211644
87.3798034683724
86.92544279147765
86.22750392281185
85.52583671285888
86.32619660470178
87.78279032982103
89.35218672405394
90.62523664705355
90.338869626412
91.50452672854716
93.68823153231124
96.73555771007926
98.68973692371323
98.89350702983874
97.79148402050653
97.06811932106133
96.67430701926924
96.03281901826172
95.44376753154636
94.90235660971797
94.37159221296437
95.68276312025984
96.75267311378046
93.85980296368179
88.74618919578592
84.74402647902929
84.41418998171409
88.68912638975785
92.04031900835535
91.4168378570621
91.53293436906402
92.14114287430185
92.95397584628307
93.2938203480853
90.50218692028224
89.26221512048379
87.86061389815394
87.47556609851705
87.73074060655199
87.86917270068052
88.81340110439984
89.36394120941253
89.12692419915432
88.82053860689024
89.53207752211124
90.69428028312758
91.21242324595443
89.84628662360704
87.07563277288959
85.20468703502385
85.1793623412894
85.71707584217256
86.63970738010796
87.98696797940028
90.87136277521769
94.7591500645248
95.49526902683455
93.98512427458908
90.80748906865108
87.52879895071194
89.98403692398496
92.07215474637961
91.63171248465807
89.28883690684535
86.56363205106705
86.71288577803284
88.9394437432392
89.86684195538676
89.9020358235234
88.97608762750635
88.65163033540603
89.33531288205873
91.10351153406113
94.33434801615279
95.16326032052898
94.7790564191618
94.41213386423676
93.03757126152085
91.91139485307832
89.1010042080238
83.44396024058358
80.38569450531811
80.74938118431518
80.7218174482127
78.53385801396647
78.34467250160174
79.47234670719553
82.98523838066247
84.87326718698833
85.84474441426123
86.48627536824353
86.81778234950191
87.0550656655806
87.75952872923894
90.92511782127156
92.78728334736282
93.0174018599742
92.88714948838538
90.44746213321345
88.79870958222651
88.76439087440508
88.20049321226371
88.0887407290689
88.58068103543422
87.88627064393536
86.97245536398069
87.64125236161657
86.44180719227887
84.58756434925488
82.62959412918181
80.21811516267084
82.46283080755056
83.5506401414311
83.61018025654808
82.1559818356664
80.78672867034933
82.01152441403615
81.68084390890826
80.04535858514313
78.99301982007964
80.36832541174545
83.35177840570277
86.13166348134801
88.47576598120622
89.96070862134692
90.00505698371707
87.17088599380268
83.84807934142142
81.35889618267353
82.47704944246838
86.9869416315432
87.81749550345886
86.72001334674316
83.09764074977791
81.24106358929438
84.4500651477853
86.71678896681645
87.36286615461542
86.12623842589592
84.48612879069209
86.11209362691412
87.99702796381732
88.60130733791226
88.91787905061125
89.35072691609354
90.55545571073722
92.63345135330546
92.67027160087832
92.42876460457546
92.10672984653718
92.51088959918512
92.19369999329024
90.88334244556046
88.7850104251249
88.035199501815
88.86960751121514
90.15801145119387
92.17822179016325
93.81912048764201
93.09087228000901
88.96233618432385
82.03297621351223
77.30896064093892
76.76864687993924
80.62155858167672
84.20843987608313
82.7677420655223
79.38902549749916
77.15571042494444
78.91350615472348
83.07194688035622
86.03859065071453
86.68918045360276
87.74597503877743
91.15822430162902
93.04312851405136
93.60733419009007
93.48696248744994
92.28198502875539
90.76907776190954
91.11079570841552
91.1409910100179
92.11645402469209
90.58636455964651
82.89323460089292
76.76120661243164
74.53089722505669
77.83861608672353
80.55831659668125
80.96054157161271
79.972940207041
79.89662129398548
80.14354296333818
82.4362197039318
84.04433059369538
86.51050461194251
88.98437460656694
88.41410244613586
89.69038658207127
89.18174385432955
88.70104623986738
86.72852830692048
83.68847797997512
82.3699008222067
82.729328751501
84.44396799565472
86.89634572802598
88.7120998616455
88.35543559939619
88.43741104088093
86.35745520980176
85.57042720228593
87.75194759127356
88.95706126611127
90.2462683355496
88.61124878738873
84.66802370340076
79.80437729147556
77.27931530599732
79.54967205996019
84.77780028569673
87.47839100085348
86.60911570415288
85.71946273559189
85.87258973973698
89.387120672762
92.12368000154359
93.92486440580574
94.56908312450574
93.24411713331338
92.60027971168091
89.9988316205254
87.9421081201869
88.12711221670618
87.28668180481947
84.01184985273402
80.49744844983616
79.87770387436343
81.8913046583616
83.47660507968726
81.05892145224178
76.48952199792059
77.00246430325691
81.07515746631825
86.81510684933606
89.53827122354541
86.91931608762611
83.68667493170254
81.37596024701081
81.66895875656115
80.96781949468352
75.33329252652908
72.68542871429653
77.08066802826542
83.55234169611332
88.50784486668007
90.42490183533631
90.42037500842254
88.26208049332716
87.5334146485519
87.66273313058244
88.81322549564105
87.24088388110535
84.90112341254556
82.94748315852077
83.96855108668672
89.29980450200463
89.962519969206
90.00158714188677
89.47212068991524
86.3753043449967
84.14713337384474
81.94759901336771
78.7979907484249
77.11239976451674
76.37629220083943
76.70563147237013
79.59640642869182
82.15495293046122
83.58680349890463
83.82344247573366
84.34472506064536
86.8492773496463
90.05149250853829
90.78137551772677
89.3317664904014
86.19487047551979
84.86502733995185
86.86506075996166
87.12761066135278
85.72888124565576
83.2820041383965
79.07532609830328
79.20390372985904
81.38250962924539
83.24244059282634
85.18802799385553
85.70323198452505
86.61465512394417
87.5784339706059
87.65989740096623
87.1875303346913
86.76808273800651
87.26072467375988
87.41187093257153
86.8054113794171
86.3328166219477
85.42240307882392
83.99445766481742
82.88686235235174
82.9586535086136
82.54262771774759
81.87886666433003
78.16688076976712
75.71346462304342
78.03006900839634
82.39351926284489
85.67839735934855
84.40276019763544
80.06932145925308
77.89736551957283
78.00720335047625
79.56578509336697
81.26489806237788
80.13762525180138
81.58434231081864
83.67275551946923
85.63789211972666
86.25450997286906
87.4865119689383
88.97587371942585
90.88368525327188
91.44940657534818
90.92329067560482
90.85540642310903
92.6252593205825
95.249765732169
95.77539477883045
94.40691492084473
93.14744203360151
93.8064203483692
96.3112532977349
96.80877463777756
95.42186425526562
92.4144114127224
91.68606645377982
91.89778821394891
91.0714901561327
89.64144850213866
88.68310634409826
90.57149821325403
92.80787581414891
95.06068784640571
97.10511180918915
98.75950816609208
101.25339519466092
102.40032724918038
100.24314663610642
92.85685205822078
86.73622560787334
83.84711541441875
87.15115969248794
92.47156972796405
94.92918295263117
96.62988041648141
96.45829585372881
96.37795870236347
98.39066515070527
99.52720819486804
102.67338485424422
104.15177254491927
104.08216946787662
103.54986492736683
102.2819494640572
101.06081098902081
99.63382860898824
98.67013190508294
98.4125414330159
98.60821571894057
99.50043856924306
99.57813453217268
100.47319305681876
101.76350031630591
102.19169322085583
103.08703995244151
103.458962613265
103.18299880414231
104.49240544249933
104.39620333276986
104.5032863936057
102.38422952963437
100.70014258273935
99.46130444326928
98.92999288248565
98.95784886730831
100.29610812982975
102.96046462128389
106.40638164878725
109.53053905470814
110.45363179542589
110.00612397822177
110.16790714391225
110.48983123446274
110.26266880900523
110.08951932663271
107.56782470034543
105.77127494082859
104.82229467480944
102.64171182040107
100.52719175529923
98.64906078015503
97.86168989624981
99.18638924772506
99.45369505917945
100.06489731483319
100.2916788512254
100.12781427512198
99.19746999408882
97.15456932898455
96.45089820235687
98.64425641921252
98.17600866897561
96.87377101237878
96.57328993221621
96.52708871427092
98.98040777988984
100.00012466196965
99.31183778290362
98.83719823077786
98.34415623603223
97.787016883486
98.055431451787
98.494232885448
99.50779352591964
100.18528707269199
100.65906515075253
100.85471134407605
101.32160359594172
101.44194091935267
101.69007309667171
102.1139612305885
101.77557938846721
101.76233711938913
101.60110610968663
101.55354075121738
102.09465820562147
102.39357406680598
102.15824306324635
101.17212081345096
100.08093086399292
99.91863010239263
99.97492543854206
101.17095669945688
103.60181564135307
104.28688554588726
105.21783926953046
106.05603801396606
105.54384661555625
104.26679678439531
102.36051262081708
99.31700902672267
97.67674194277032
99.07616194986288
100.4506784891866
100.703279924548
98.87104207223281
96.69790325299347
96.96106240314752
98.16232725531073
99.9062195863839
100.74346826394057
100.8480482097382
100.8685182007314
101.11431927166436
101.3877470530055
101.54332303792518
101.56020514384282
101.3053073794091
101.76047471723396
103.17695931633206
106.32526249815578
108.85555547092098
110.52542316043497
109.84782153893073
108.26761779850861
106.62584124145377
105.01935958278486
103.34859308187153
102.27761801967868
102.89357078932541
103.70058970618105
105.31240152689927
104.78508875018156
103.25126634823964
101.30173934730861
100.94830237103638
100.96767541467548
101.1452344893352
100.83314604546156
99.06206814944046
98.10699651807369
99.06435972747217
100.07076653756573
99.52530955320624
98.78019733088564
97.85843921096209
97.97534369090071
99.98901188173369
101.64891250651823
103.13713541079159
105.55177032983936
107.32143037085406
108.29240994211186
108.50404639929985
107.90455527691803
108.09116914241098
107.74914603585601
106.18326196401782
103.12550438659241
100.84401008700392
101.48938104430664
102.90391112840165
103.06568497081355
102.0745704127486
100.53422151260122
101.07018708111124
103.23759209676126
104.85976758920008
104.98155472903179
105.01052489532752
105.23914157185374
106.05457836564786
107.18569632285941
108.3842150961959
109.22849926273807
110.4473593704573
111.73051034831954
112.69860654207004
113.25800161342829
111.56623856205273
110.05115833311869
108.45605493416625
106.68792192415921
105.1553743074846
101.89248569595584
98.45189102036522
99.49292588949437
103.92119197247952
105.7321000851412
106.83780689418224
105.42524130263209
102.55112781481557
103.0466710627558
104.40025181755428
107.93923322547575
112.32977275495053
112.54134904028834
103.78277441946103
92.62383934212731
86.62702510287536
92.7689528083131
98.28553784078638
98.84194063761409
95.10472470270209
92.49419297685463
91.78928540032908
91.81497955122359
92.07287366994909
95.08192047259793
98.68957635183136
101.48128617117807
98.07689475378363
91.29203814406998
85.47498877126446
82.63114848977784
88.04807134253225
92.76885107917478
96.40367393318064
97.46200220775535
96.75208917932659
93.66936334339925
91.95209474473677
91.23820481981284
90.48208507422424
91.34645828254766
91.98060533258467
91.72682146374756
90.26834382189602
88.72222077046467
88.71750901830939
90.2839006426233
91.66205659619395
91.90695629967742
92.00288280510803
93.12254817399652
95.21606405671737
94.99828114188809
94.21332820934748
94.17538071527765
95.29520552187455
97.35102141259792
96.444717515293
94.76048127774857
95.74927624875382
97.9575064875183
99.69291560211688
97.76508814506718
91.93719921728945
87.51611619363258
89.48618840799752
94.09298184013458
97.87535907583577
102.01965458066749
103.45655549577926
106.63057760148789
107.75047169731594
104.44644762551316
98.00351093012249
93.06497837606108
90.89604290358324
93.88984852339173
95.9429167664901
96.34080396642764
97.18124299853169
98.51996619054523
98.64438065659085
98.8035811799751
99.24905891778411
98.98402941114465
98.26813025918246
97.75896090398767
99.78533870187658
100.94742843387512
99.2302276428163
95.90733083223449
91.35408531060196
91.46281593583079
93.51762564937967
94.45133260586245
94.27440974539881
94.27600882188857
95.7875677191886
96.02141317249658
94.80838143466016
95.06462524410523
96.36944211161216
99.61473034842591
101.62557048825593
99.11021485830214
95.94157941131698
93.52677312921655
91.84565210318247
91.41387172292076
91.5936300694644
91.96559155464678
94.50111696221252
97.89895161845186
101.36054386111498
103.48697601952834
104.37333008782737
98.26787016008983
89.914082899679
83.59157095770453
80.31908775630477
82.20209083848243
83.92168603985671
85.93180077182657
88.70688521488997
92.01996978215988
93.30213775483317
93.5141343596476
94.94742725782568
94.28906621341072
94.81054727786893
95.21508949671177
95.29340347096475
97.03871662228511
96.88746839771274
96.11952737515027
96.36914414333098
97.6413411585548
100.07487094921566
99.17408443226202
95.05771960091545
91.0277042348759
87.51734485240117
89.47136317635392
93.6179389424563
96.57703170447357
97.77044497081016
97.71057555452472
97.43922166474978
97.35120712045456
98.81055484551511
100.82052858664518
103.34561765710585
104.64486536719917
105.44376737052804
105.0787975604169
104.08902056744417
103.56187580970072
100.25602763667199
95.5307387307912
90.83095932845103
88.25609438167025
90.95114823305387
94.25798163343715
96.73119073078264
97.25427089634773
96.62452652526476
91.6446387183634
85.84547453456102
79.90414574318858
76.87262752404789
82.68660533050185
85.50491590564744
86.07878796833353
85.87241406270068
86.4893454986738
87.80490304649229
88.10865244421635
86.95486319225071
86.20095975555596
87.26726290616543
90.27275912274536
89.98470486710347
88.94034872220358
87.71730151612572
86.77571574459498
85.98061662898458
85.04771330775354
86.21325676550848
84.96065628965404
81.72314618641036
78.26131357432317
77.41548674193352
83.33741037968419
86.19951705525676
86.07773097926326
85.77402052334413
86.91415760553386
87.61734565724572
88.74908295341609
87.61072798678859
87.37638002977225
87.27888282264335
82.92800201640821
78.62877863690383
76.56877603650656
79.16444415766966
84.0750038111717
89.22575722810926
88.51101411690274
87.45104798138325
86.37133909073576
87.19399181001766
87.99950013006149
87.54937882577029
86.32093330601086
85.47684319657402
88.15855137242471
90.60375763370418
91.23773497175783
87.55426631585449
83.4635571480906
79.99445551049583
82.22495886009752
83.84109762116718
86.05226248399632
86.78755945496106
84.2004783861714
85.57290988635113
82.54732572658091
80.63150816017256
83.62073414157041
84.3999364690197
84.9944762893621
84.9524988218105
83.8855718142932
84.65748381169345
84.87187650914768
84.43767446357425
84.31412180914054
84.10100200714403
84.57610443028447
85.5638433407818
86.49542713151544
87.74019375843032
88.51791472148177
87.65198553330256
88.18698421681492
89.51006788283657
91.49842944297664
92.02253453996168
89.95571482448814
86.05273192186525
85.07403571643705
87.96255671257373
92.7219977526761
94.39041712355562
94.6227694097161
92.4173406403413
89.53246273051036
87.48447056676639
87.5918916028098
91.73481111777056
92.1175190350894
88.46371436107357
84.81613753618554
82.35586646337454
85.31924416513306
84.99403221288573
83.46971373696263
81.21137485355715
84.25370063346246
88.68050731262174
89.18440517373159
86.60457494263362
81.55263559778943
77.18715970930783
80.51402317047572
85.60718752758731
88.42291948807468
88.9306041057515
88.68491783978222
88.34839923196361
89.36550553248509
89.72428241810172
87.7207732264436
85.34423398907764
82.97398736968468
84.93897896313757
87.86829432862982
90.2191650823666
90.80620788192519
89.11949303140024
88.66725529784183
89.83461669798375
91.80956491586352
91.63686205631724
88.30737336442218
84.10655201425381
81.1516171134612
80.91255482301202
83.76402104605931
85.24630243485583
85.03845217696639
81.6223480466219
81.0343741146136
81.27158705181428
81.16574219347231
79.39137540241468
76.87562596854585
77.64205989041426
80.7938084394199
85.7812980352906
85.87766146744238
84.71872523138094
80.70647458262087
76.18095667727317
78.25048510085496
79.66917145622764
80.02703799669374
79.15365638377307
75.56375089513196
74.97255931804006
77.53403612638482
81.59197424081606
83.98277676212085
85.98199418271732
86.68016556929663
87.00413836958447
90.17097149001157
89.94007534740386
89.30552921399166
86.80231189901885
84.36169948548634
85.21602078685902
85.89459712186753
86.99139939637453
86.6265146412365
86.54130947124546
85.99942923923086
83.75815993087141
80.18901348170682
76.35582680551775
77.50717371750966
80.88886972059092
82.57733253900044
82.33725325456119
82.72052991084436
84.07914835120505
84.4750339216539
85.03307568870471
82.46626487182682
80.98830285057423
80.63143670731503
81.08305228886283
82.29307667678263
81.8627735371621
82.69484944913653
81.74467782127941
78.99091518865913
76.31059043851397
77.42234053429704
80.49728553323862
83.71293534121139
85.84586070792633
86.05426050047336
85.68567850677869
85.38523429778405
87.10658621846193
87.58362111860518
86.7192982872073
83.71756959786386
81.64550840315027
82.18582532336634
84.12344382948304
86.10371815822188
84.72826146005691
80.71178670115071
78.9616044439769
81.11439116065728
86.280839004299
92.86229960080834
87.71312798847362
84.22420275653624
79.5916413956398
78.48214469437633
83.15410565756844
84.72119824820501
85.82474065511056
86.33504756388905
86.05220685898571
86.16395089413331
84.93989468584827
85.7489770822499
85.36095993834697
84.84163129568489
87.1862310754264
90.54947742609653
93.00891212476718
94.6220953526986
94.94961952407533
92.59701685801889
89.35520329697636
87.76473798357681
87.25942411106936
86.94577476332762
85.48195918138615
81.71024170872087
81.33562623853317
84.47336549644552
88.09949963493959
89.87546854708896
89.43739658534396
86.67846626861245
90.13224717632043
91.83441803616286
88.73083343219825
85.27190017841326
77.78781384138841
78.73065129855041
81.74747290871456
79.83195445827525
76.7780150303218
74.76689193173213
78.40631337749835
81.87359349938706
81.08847505098916
77.90208265779447
77.41386510585437
78.53115869891445
79.81810792658784
78.35416667514652
78.88805474210149
81.66220127946654
84.65091906460874
86.3405761967712
84.28996037959087
84.33507014621395
85.29921221763234
86.24555802841908
86.64310498042343
82.54108996245513
78.2960414955726
76.7761647955661
76.87470092088668
78.11562371291652
79.35257592271175
80.25841632839148
80.14145394952202
82.06145660507653
83.34829106461686
86.82770371088507
90.23097772784277
89.11432416499852
87.5308114875771
85.97797318793843
85.95948878865858
89.05771588064563
90.07284845215261
88.84954294053624
87.19277151795757
84.39509385779273
84.87494112305731
86.73747250581737
85.82939323162226
83.54730189225114
78.21645908658029
72.60354954868444
72.73598781918147
76.64762566744497
76.9451665541649
77.25841149994443
78.22310983787757
80.4161197114589
84.14717414801508
84.69858808220127
84.50919838182298
84.79612790011714
85.0114790967952
83.80207527642015
82.28937126072222
78.29694217116791
73.17292816555818
69.53606159680336
72.35551056955741
74.54201207156689
80.08762924236453
78.82376904286878
75.32742705905719
74.9459900133149
77.77418488694964
81.88963067950576
83.50831851923212
80.49118297729684
76.23628608311323
72.6779830548239
74.12153349224596
76.24629395860876
78.59187592285488
80.37764648137207
83.13726077650819
83.84147412782137
80.5525478119785
78.52070011457295
76.49765073092136
76.77401551581396
75.52784634116158
74.3423551634739
74.41776362226346
76.09186405537992
80.57140181522885
82.97733290935943
83.52282831011155
85.1334412910137
87.40442544963264
88.47279579879985
89.14186866404356
86.74292765714628
82.11920526138644
81.33894678807478
82.07300187170142
83.14853987469868
83.54549314275248
83.45874066612899
83.81525606576272
83.91853882312616
84.16080650670281
84.42911474585169
86.18232597369698
89.30474484702208
91.89115026480646
91.8530918056197
90.52048874967501
88.2062682388507
88.99970125172841
91.26770771561714
91.35743211292497
87.80739669307407
81.32330286816398
79.96293529109236
83.57990301597978
88.60952352021788
90.82500050660032
90.12650525186717
88.35938378807155
86.91362147838059
86.45407412029051
86.71556930281383
87.5239275399333
87.10802627851815
86.25153629700947
85.96387111886361
86.13109674225045
86.24799064527238
85.2246213712994
84.61734298705929
86.37712679341472
86.70848454783776
86.09010626277225
84.7419705395106
83.86282476381315
86.17324153934858
87.9316679396121
86.4749219788371
83.55533904143637
83.78449882223966
86.50395734499897
88.15642829993955
87.8323473187845
86.17290473767343
84.93021429571436
84.53370273922478
84.97066254314448
85.69665674827667
87.20012249076849
88.07719294293622
87.07276394584733
85.90168592125629
83.83747518139313
83.35475887424715
83.42906417421526
84.16015950789004
84.8864270363069
87.93718102182635
88.83197288315615
90.12307344619836
90.71434505152156
89.09557561763674
87.13263196662847
84.68338541476518
81.35908370114029
79.39851584216345
79.15632824665222
80.78684103473543
85.36141670741142
88.92797318982208
89.96864139550955
87.19830171548665
83.68857719653269
82.45536795009745
84.0445467703729
85.63568731838151
85.44167526868213
85.73299381901745
85.67615082691142
86.99662820402608
86.29930075958664
84.38954240595493
82.32630447523462
82.8552231103262
85.39380967131758
86.18961061787572
86.7968126443641
86.48226138991193
87.30335245312686
89.61883148741146
89.4125188985427
88.54073545944755
90.12675764570268
94.06153373213789
98.11552478378377
93.83501296227588
88.14489121058168
82.31356998711811
79.42530125325325
83.85168172674734
83.32640814675776
80.68266734307119
81.68523656257022
83.84981246176487
85.18002473256114
87.9364352349782
89.27706884815578
88.45945964765498
87.23323952911791
85.02402575624834
82.74994886801441
83.57077794504427
84.06697284991135
83.45262604349367
82.57536438513822
83.06253628074899
84.3097657827613
85.64862859712113
86.13731680481932
85.26959946895771
83.30194069662207
81.01930598749712
81.32337782560936
81.50515148888795
84.66096354262166
85.44766408379844
84.56599545076345
81.718808571207
80.80655277931213
83.84611657616686
87.13587353499994
87.20337115944102
83.18803148193847
74.99512519375395
72.96532614679779
76.81611604173365
80.8939838508957
85.12131136985423
86.22480732897642
85.79235980655567
85.589482122525
85.77299675952095
87.14229065965394
88.85382894357146
87.84645933884335
86.7326508181367
84.35316209413892
84.17484425784077
84.79886668255132
86.69468266434241
88.24555796776805
85.94111676979767
82.93835415503514
81.80181182573992
82.19608305797286
83.18690248507012
82.14736010451635
78.56258886756594
77.00884876950738
77.97280202447
78.20200470253553
76.04249254087256
73.5739694185976
73.12104684522404
74.14929534861183
76.7107450359471
80.94959232942024
81.55992263147765
82.48267800249009
81.04051084447448
81.69734066606648
83.1587788993656
82.8410276943595
82.37148978956604
82.05647099054143
84.7364575603086
88.64825953243594
89.03047156626616
87.3147858562328
84.42704904760879
82.33244385931442
83.8505646696012
85.27397630508383
84.57349404543115
83.55526737791877
80.75688385162408
81.18640542368814
83.26123371949195
86.52176022128128
88.18458520393018
86.6949717616384
83.53458827694591
80.41345149978888
79.74350840060468
79.97200586028258
82.57253108403476
85.74015208549201
87.26345733236259
88.35874466652916
88.1861920081178
87.31644739956472
87.7568977741769
86.62012324152552
84.63169787622346
85.04922088273686
86.48568861100215
89.46025664873609
90.9330365987464
90.22550436485082
89.21914064240417
88.51084225115883
90.22552784249442
90.80359614276925
90.47014041866183
89.55702993838212
89.61952128937729
91.57109766195852
93.25551780750051
94.0987211270047
94.39420725880495
94.62725792605617
94.6648424474072
94.40635841546636
94.21493180586512
93.49381053176295
90.39376171352852
86.7671413145858
81.61726462038776
81.68201338146413
85.69786678492414
89.16561904578485
91.83952575651891
91.58901213566764
91.75438608825112
89.10749714029603
87.34545335513646
87.04219315252129
86.88468993097696
88.75746043653557
89.26435890639182
90.10623297363877
90.67875565003223
91.50856061609885
90.49079051593354
90.29056175046594
88.82803639137653
88.26251169094563
88.73825465626501
90.19256587838157
92.16625155427002
93.17985435142914
92.74550453283142
92.0491979673907
91.47369941090474
92.33142617172581
91.62225055561714
90.31969124856721
89.95928991045228
90.25291944565171
90.9413051323751
88.44268258807983
86.62588690404284
85.5168260894361
87.20430082368311
87.66729620869496
86.45660429840629
87.26273103509853
88.54416103208133
92.02634320580744
92.9573976179796
92.47293800966925
93.10221836051464
94.18872827063551
93.9986821780267
93.11618951520946
91.78298951459361
90.20062047407212
88.04146807648489
85.64280381834779
82.44276537254862
82.75512533482745
86.10441963726763
90.78423617582446
92.58896475368164
92.28068793664956
90.40928379068428
87.05694908381044
84.7542603798948
84.31766009772369
83.30424187386315
82.42981149052999
80.89981768110161
82.62283336119945
87.20126711096916
90.14141011704015
90.69953137881208
89.63505262920691
89.6924242888142
90.57883651646405
92.43504010427955
92.81390893452047
91.62713442570349
90.13001692994153
89.0791876944633
88.69778864529655
90.31830547691462
93.62902489790827
95.15522722083817
95.12897595178772
92.49711945024751
89.14578753116002
87.37063173750654
87.09986348459744
88.62404806419019
89.44156156589014
90.68952067130651
90.07883096521614
86.5059479082362
83.3279643004336
81.20812432257398
84.09524460336986
89.08092688433436
88.65526630629374
85.64810173169798
83.31156028584479
83.06472281266619
88.23588785478212
91.59527390777636
93.13104726556871
92.67973561287096
91.97249116395923
92.42857120970272
91.5350846774472
89.53417645882732
88.32573248159672
88.89640307058721
91.72570597650407
94.60933260533184
93.13376673229328
87.61541400591514
84.21258127186567
84.68247994520553
87.93320862308899
91.29527434946202
90.39070340340552
88.6102540195341
87.24285691584676
89.0697452590221
91.1081879780806
92.37679441189891
93.26561702429977
92.31553729342342
90.67842647415692
91.85903561863621
92.88978964027629
93.82906312628974
92.07239189453092
91.7328588097484
91.17959736559673
89.95708503802291
87.5321564188776
84.67471954543065
83.22546746421553
87.8879708687767
90.50764382951233
90.64576545090803
92.13711270066403
91.54648199661733
91.93064552237193
92.5562241343848
92.67516338317174
92.18289966889196
90.23295216901685
88.74111058393261
88.49269509209624
88.13284206873519
87.79043834731831
84.9383423715557
79.91739024616163
79.26487725741748
81.72153432130442
83.87432741742701
83.22534769063198
82.07462565772447
78.09786397283744
78.48663722065804
82.23492642665968
86.60415231440825
91.69574553837079
94.17683115020594
94.56972505877462
93.24757593720022
91.98828214409599
92.06201127881754
92.151996371115
88.4083748569663
84.89636461689057
80.62709883595025
81.80254304820667
86.11675082509456
86.42805901105778
87.686736337363
85.96486206795242
85.37417529445055
86.15413983465199
87.02392473895506
88.28348643772253
88.64092406677587
88.50406070105879
88.14284390792785
86.66460155251211
86.9697560786286
87.76828894407525
89.48269314107664
91.65455753567976
89.79542938951207
88.36789940361199
87.65009658436466
88.29658292533547
89.58759370410603
89.65906335555896
87.90154770262151
86.69874934764547
90.02237257329877
93.35992295440056
95.44947802511162
95.61748833217747
94.61909341719188
94.76402054157747
95.20341718792842
97.05611228317771
96.89794002330721
96.393410144998
96.32867077063712
95.30963237342034
95.70828050969483
93.84018343039384
90.32661671612753
87.939843086139
85.03350651477972
82.84648439110892
80.81441240574846
81.09891332591978
82.23241708227572
84.07783971972624
84.34165049146216
79.14914626073457
76.51963287249708
74.86346134424284
79.08780540743308
88.072503910736
91.82389020392776
89.67030366298071
83.97279532587983
80.80800712346601
82.19458182289317
85.5348132254553
84.74392957420022
84.56090379536923
86.86981137203693
88.2954937395724
90.63907615334755
90.8186544586319
89.1083388872213
86.43981843440032
83.14583642755639
79.92819220827639
76.96645765639741
78.40577260606528
82.30182563122729
88.35647242126663
90.87189580607476
91.84827613386784
89.47725095397165
88.39790712626133
88.89415055392249
91.15563197888463
94.73951655262233
95.3379477251844
94.4129566830925
91.4559382623482
90.05275032218238
88.6917866483746
84.12435945506442
79.0368646244446
73.71554072342074
76.76276508027338
81.91965612157564
83.15254650827316
84.50847566348851
82.24212648749214
80.39294200431058
78.80660566061742
79.49662661015358
82.66157504169914
84.44248375866468
82.52560776150555
78.98571874407453
78.06492086007269
79.2390109866777
79.47272887465752
77.13814762879053
73.69702987371953
72.61749557410846
76.66141054257491
78.98905687262838
82.54225133957507
84.91013260308871
87.18134969789004
88.43476629805228
90.22510642326183
92.38797872593555
90.22550972535208
85.89638820941659
81.92652681046836
80.92511473530101
83.59481116652286
81.90050097597198
79.81594083585469
79.70101047730817
85.48885895687854
92.49050994446992
95.75359838771334
96.70595618766271
95.88046209367668
93.75211474268971
92.67268266395291
95.39811162108653
98.33267053451061
101.79729521875291
103.72752684869432
105.29969133717917
105.18417820719371
105.01086327145194
105.68847113298877
105.06375939863271
104.68759264157153
103.27169705624972
102.33875349360852
101.42072943503632
99.65750407353744
97.86048211277495
97.00600803695848
97.9073313493606
98.1379512114698
97.41695066687225
96.86950581216253
96.97440055292056
97.70276679117778
98.64338569708308
98.01006971359037
98.01014745172756
98.01836335856433
98.27734708208403
98.87591779331416
99.05194625741076
98.53166483376417
98.4346293223828
99.77770457343773
100.99046083116549
101.07122961453592
99.46358068924143
96.82014821408877
92.30005688439014
90.4695492576476
88.80376579879032
88.0136262784518
89.9133586770168
90.89423328531738
92.06413320629542
92.68345069493186
94.21609981058428
96.41343202199512
97.60687216109999
98.89616916557978
100.01755908728181
100.64302258915767
101.26680500501091
100.5055974960285
100.87007427651498
101.23980391406288
102.71228272980005
103.05222012767476
102.39494049793645
101.32540484819815
101.06772165039959
101.44645305058982
102.14670474957764
102.89032427823733
102.3248560565096
102.57914728675198
102.82697896657412
103.39173351750141
105.50025826543025
105.44072686261524
104.3779283294634
103.40255596492823
101.67763110047527
102.86271878134819
105.86540305815733
107.53022445954731
106.93180026661373
104.92092872915454
102.67991056120553
102.18646529043312
103.22911364034908
104.72145527086698
105.92281465585708
105.4870051359786
104.0565792352202
101.66823840014366
100.71051739947683
102.05228000474484
102.52103018909935
102.95680604416383
103.28607867920148
102.94772964747634
103.58176817643353
103.76898950644667
103.89374273888309
102.12992154136613
100.17547076379174
98.28319880361418
100.04901447463376
103.14798365012182
104.97185357158985
104.32356785545737
104.51926033370529
105.23036692457285
107.54767191306155
107.26440616529506
104.87470458890742
102.3311144071038
100.66629618372338
102.99610909384779
105.78835511518754
106.10413093414644
103.20449203950626
99.08272820889914
96.98739489650292
99.30371591179748
101.48160101798145
99.59171124707706
95.4188511556839
93.55911120895303
93.93658327064092
96.50092655197051
98.16839073109007
100.11420564018682
101.15737227810547
100.82533657033464
100.41598114075815
99.25182825520581
98.70061797254164
99.60879330683731
97.49055826992868
95.4879648276027
92.54040291279345
90.07263891719236
88.82166017096975
88.11119189522854
89.7211377175553
92.42676716890061
95.64584206993936
99.45414494474744
100.73875679622016
102.80497061866353
104.36332772380726
104.94317314800914
104.56495674925733
103.02151047554106
102.24789725433223
101.91339421711012
101.20083808757833
100.96762883607036
101.09227616509935
100.08873155686891
101.61357152731848
102.40488792348991
101.90387389427157
102.39332875455007
103.06737133188507
103.41539284215322
105.94051624669075
108.09302293858839
109.12132878736568
109.61868088549328
108.84435878964419
108.46948646443151
106.72955765984081
105.94187733129621
105.44637846654314
103.61604299669749
104.06731033935178
102.6453752185955
101.12604533449314
101.76317140217856
103.10191041698697
105.7886613716716
106.01703577011396
104.80779750868584
104.28470544951195
104.56386130900552
106.00545968474663
105.74586737237055
105.36490703144547
103.74263547737017
104.09121646627374
105.57156977225532
107.07300676434222
109.5839192775908
109.10284787952828
107.54510903864897
105.588284123142
104.20955300579386
104.1611472791805
103.84475340293434
103.11850629674558
102.73763486092638
103.10076720852514
104.32010932049319
104.61079564632131
103.34338584568535
102.1244506689799
101.5845181355926
101.48433789719176
101.6015720337305
101.89280864371426
101.47020750480603
101.99685952759815
102.8358998246662
102.19411504465948
101.49446917562017
100.22514287665149
99.6114430417914
100.4431030629168
101.38576687086311
104.3628984577904
106.21710743914727
106.68691096335237
108.1353751870343
107.87134872730715
105.51814383017071
104.03571633106947
101.52839661671352
99.95186818011119
101.56613624898696
102.85099209371249
101.71546448101587
101.16169030626953
99.55874828200244
99.2739174392629
99.70394345287448
98.52657328893712
97.71632975516752
97.50223946197248
97.22241890293277
97.55164969123284
97.68064097825197
98.5430856749584
102.0350508681632
105.7520457905956
104.60891951756975
101.51814237760551
97.6462713305699
93.5723325890759
94.83068542957265
96.98877978881684
97.9910749661072
97.75307983553392
97.37179069559387
97.2908818219347
98.80326348303691
102.22759760708904
103.21676745918198
101.35025988426672
96.25934360619196
91.68562796538696
89.9732980753293
90.79650060993136
94.26518340446235
95.45344857167395
95.6462294318963
96.18014321395803
97.29833756618972
98.2528963699667
99.02092823087243
98.33638451733246
97.05404436428194
96.14835835340627
97.0496495841354
100.15409741718483
102.87656634126944
103.75512159804224
103.67265062299256
102.31588218626219
102.10364893121178
103.23254564702042
102.47626061852401
102.67144772527406
102.29970037438044
102.18254006295115
104.03589068212374
103.74607116092685
103.19348396436538
103.67326131367699
101.66041793947625
101.14316101091947
101.64571160383883
102.12187281670494
104.33115980758583
103.90767563486699
102.84171495493071
102.02402645955887
101.66024698325396
102.91253523154371
102.48434796662288
102.23684592990334
101.9311681053777
101.16616196315073
101.43089463121854
101.21655957151022
103.54482810160705
105.64977132277446
105.60691410263097
103.56423273925665
100.27498134677766
99.52099123339237
101.60793869187474
104.84925527991679
106.50439467280472
106.02677968843257
106.49402046896606
107.37504909381526
108.35461942582226
109.25072819155804
108.85677448415242
106.91367153275952
105.32599560712347
104.5597528370396
102.93137124944458
102.95204385118684
102.86649086465853
101.98142801167107
101.93521376141837
102.1285317510089
101.21373557626855
100.95358276533887
101.39770468677608
101.34803022435246
103.25656146576361
104.06692515370227
103.16122759247587
104.65404202924893
105.87245758708384
106.81530036132344
106.77389721467748
105.36085022821011
103.77216842045195
104.18303393336375
104.51539234281005
104.3989367519019
103.96196828911246
103.25587828666117
102.96933749817832
103.47566292472533
102.20232333179617
101.14861650157275
100.069996999797
98.97903690795215
99.45933388774371
100.4070606812036
101.621003067036
102.77361175292152
103.35171305639564
104.21351640299825
105.27738044698177
106.72925088674288
108.24330692208949
108.98785025362417
108.81559047373865
108.33794155655573
107.97255901919917
107.81572666689203
107.50813078893212
107.05536469383203
105.96778531734276
104.52113904016863
103.29176375889695
103.64342556664135
103.87744192483424
103.73113220925467
103.37392356494067
101.04308164312471
101.26662832300536
102.55441875860967
103.94569061216875
105.19056027013947
106.44634026700069
106.95673922161646
108.74364344664227
110.16055336032987
109.99120131808097
110.0479362430141
110.0254995398553
109.86282556654474
107.37945304439191
106.20489764832487
105.39016462206237
105.85867636452222
104.93511138562782
100.88586018909623
96.75069100312832
95.73109880527767
97.04127005241071
100.68712832473454
102.14376336438183
104.7814651553462
106.85074840778354
108.71199340054243
111.29561184752278
111.96399368063688
113.47745339935821
114.54525775012915
116.81919365399277
120.67155618965957
123.50702052113378
124.6767162449676
126.21276339038324
126.43156053210882
126.28255637779579
126.48985976003365
125.49452247495313
124.37307749474384
122.65902906815671
120.48679338238622
118.49255873659432
116.55119524474253
116.71213850645034
117.18507207277601
111.51536640567211
105.01785064858086
99.33397757037983
97.82390116326542
104.75678651497334
104.15848236869009
99.89641393208844
96.71488265792654
97.06965235962839
102.24170156911588
101.92883273652244
98.93251929642106
95.22660795702528
92.49539963250184
89.865360943402
86.77097521038141
83.76637605836005
81.8948924218726
79.62951960474275
78.04762839816514
78.93928392288517
80.20006893452597
81.10249959069833
80.38973996106327
76.96673569596288
78.25873384117975
78.33967158649443
79.49742878551565
82.31613459313881
83.15662136285013
82.66721229657684
81.5584837443868
82.04930420905313
83.94186757038419
84.88829234657705
84.65278031930008
82.94659684289589
82.64829777841189
82.37342067221411
83.25421896242077
86.57508434450926
87.89261564523414
87.00315791592979
87.09765136614077
87.13790714178035
86.50481441584424
85.56223628750692
81.93386479342418
80.98793703486332
84.26675542644608
85.76952403563631
86.4335072558036
85.56596509524988
86.32704063439644
88.72405148998116
88.29223983354284
86.90704333542504
84.33896911938056
83.79509505207896
84.70816915955034
84.21020561535605
82.19798424392114
80.66623932691022
80.91066123918608
83.30651048624205
85.08971507927383
84.40938099303905
84.25371356650905
83.54838678527867
84.39603774419291
85.84923634462936
85.63458500663961
85.23041302329479
84.19741101939506
84.22037882612305
83.63361948225932
84.30272813566418
85.71608373279581
88.0271242880365
90.94689829851676
93.12862375254372
94.27048478142964
93.50740696573895
92.80928689502124
90.59641881071464
89.05222750439363
87.84134097596471
87.31268119319735
85.19673722864151
82.8218880139868
80.27261224160206
80.54461860789819
83.98738145088848
88.37874668761894
89.66725161219752
88.32688829932366
86.3392356372783
86.34817128114499
89.57156885061538
87.69093455001486
84.89548647363364
81.52108824493372
80.9863742435455
83.60651748980817
84.55799561838118
85.20931837798031
85.18496803890334
84.88176983496408
83.71404038900076
83.59882941911414
86.46802287439833
89.30102840030025
89.6470248995358
88.59321131101323
87.70831505412393
86.06191399257887
82.66764938104805
77.32273186662088
71.37459541838335
72.46208959580366
75.88183981480974
77.54119638073593
78.24234374735117
77.71761380314388
79.72156660890111
81.62641734698634
83.50881972467667
84.78150244677406
87.60574213650439
91.40817246586754
94.52697954473315
93.27715799639886
89.29178801161389
86.04485342561628
83.47165285413806
84.71761755551641
86.68141749198585
88.3163029080645
88.65901256168958
87.36797934477357
86.8449959769156
87.20344133839299
89.09748859610322
87.6775865137389
84.52959287853862
82.50466824576212
84.06061730186406
89.95632253158936
92.17462013004756
95.58822117821626
96.31847255038826
95.55023431119018
89.26343363325846
79.38757049108867
71.42042404950824
69.62695383884996
71.494500671129
71.30828995616253
69.8793039669228
70.70377683263578
72.99143090803865
74.4111819109759
73.79712329622807
74.57144695172316
78.36144558362314
80.14296288586281
79.40313543135908
77.37475987598836
75.3691602494278
78.42735329001579
83.71321462038807
87.65857949959369
89.92809864366383
91.80564551908707
92.36680056330344
92.0967050213501
92.04675734748464
91.46585645773793
89.73713574886554
87.77368032139252
87.0783205005959
86.22244609300427
83.31823896491558
78.56830651318666
71.4132357295131
69.4200646556583
72.31230274547137
75.67815814395735
77.23021240978554
75.98788123748685
73.41190845945306
72.21340650849862
72.44334099964168
73.36337337041647
74.52939503000492
75.04555425122045
77.10126034262579
78.41531532385609
80.08155504763702
81.77435374792704
83.40905694131098
83.56058147717981
82.7437642304734
82.01728201789184
80.85350426064909
81.34390790163016
78.46805269015438
75.13879062123607
73.71138568850915
76.44364786394195
81.10960147063196
83.95820166579313
87.45706312598467
87.35075196765555
87.05320232443368
87.79634605832189
88.4108127867919
88.08835722993375
86.41133968285722
82.28143179920671
77.5055475508617
75.95878409686911
77.49661410138019
77.29211561730764
76.46744535279949
73.62395133258575
71.74148396251654
74.52482229089894
77.64122864245054
80.22167718401478
81.51368104739376
83.22696419382137
84.28752775071293
84.60223402218209
84.1941198556422
82.83732794102966
81.21071858271233
80.48121894210398
80.19886566816152
80.19872318180487
80.73810019445416
81.02147142182532
81.21783828183433
82.1172012485723
82.32190296098923
83.1149187678947
85.16181978534514
85.16208148298286
83.63026486028944
82.33836202066048
81.85812146227377
83.00583847261295
85.15095728178669
85.29735018303262
84.06821247386986
82.55122067532234
79.15649507227154
78.58183626297733
80.37393936487199
83.6652254139455
86.5070262906994
85.48516640614028
83.77069487870278
83.52781068902074
83.81471933800347
85.25101803182945
85.14793695626375
83.35805975154986
81.58014544648577
82.23453282257172
85.37934110741192
88.26934167872172
91.60974593853251
93.02141965976051
92.68348929393781
92.13372716034887
89.6252171458672
87.86576531396045
87.68419120615708
88.91501169567378
92.17624042879575
93.38182435629899
93.49027304166765
91.64309733095507
90.1503756070162
88.25615267966434
89.2774470591647
91.93600899148903
91.90074753686712
91.81725016513221
89.80122533265161
84.44379694200013
82.6376636875599
82.55222113863736
80.20079733668219
80.5210375816792
79.66423799364217
78.67855926010685
77.79725806546033
77.27322424378303
76.92599744367689
76.1054023712652
74.77861471501969
72.68003116025838
71.52556726587585
71.48083822552009
72.15574153959672
72.52145108299439
73.51604147108641
74.20326966754783
75.79480795977987
76.85714668263418
78.51713679972335
78.42562535968696
78.60529798576542
79.31367798165616
80.09038969370289
79.87647655335313
79.26052418929117
78.75304859157619
78.99880146298061
79.6754104051246
81.96011374973705
85.40030528482
86.99921053526705
83.66161272282531
78.75586778078436
72.56906057146725
71.18990721042209
70.23475394726391
68.47084654410807
64.4173703374498
64.3979672052977
64.88376690634404
66.31263761451964
67.99527535806541
68.96674786054632
70.95351406686885
72.52424566165116
74.55526887650737
74.71857037780921
73.40937902875378
73.71501679365343
74.27002447913806
76.52781174351652
77.45390804673633
76.14375342976399
76.97519949330456
80.6937957134201
85.02162744675799
89.49968666709339
88.29896147633893
81.94595145266918
79.0593037742454
77.17985097895647
75.6783074072073
73.17652428009386
68.76106212205102
64.80558024857721
63.932096615873576
63.256083644221256
63.252462455317016
63.758588762110854
65.21498682040476
70.01465389135495
74.47751314523525
76.47272360873006
76.05956026813907
73.7062834726312
72.81402496468499
75.19780317256564
79.04849073112959
80.21886926238105
79.84982809917166
79.60248571382884
78.90593474919496
78.56405787308093
78.48691216118486
78.04341230602567
78.75645626827784
79.77665192809917
79.5485683117681
77.29870494091806
75.48368606543838
74.5181644945701
74.13734779747912
74.65267242655706
74.16736815249497
74.48585392889191
75.44749570173616
75.33177069599274
73.13112509214417
72.10310147607078
71.16275578413902
72.06660719907087
73.15832452374886
75.79719986160593
78.82258595525961
80.13306236388638
79.50003310259683
76.62617604176037
73.29618708053059
73.27476159110957
74.4375516955696
77.54365072100651
79.95114470054241
80.04150872806699
78.45608694029764
76.02880241626183
75.49898144376363
76.38931117358759
75.96978911715479
75.87204734698634
75.34612430477142
74.76804985003454
74.20355982712331
73.79892002534278
73.95443355932626
76.84807940952298
77.80431792393185
79.86505214176067
82.4528207832121
84.10464415002926
83.7004275515239
78.80821797765984
74.23769928154431
73.05344129948907
73.30952423185043
73.06446511731477
70.60680987456766
70.33154482737484
72.77975182968927
73.76908400280037
73.08848130070706
71.37714642298933
71.26008608046698
72.59382411356052
73.84997523042856
75.55240086976112
76.14508318115966
76.1975714633078
76.10330044760495
76.36018915677298
75.77412722718437
73.81580772435922
74.17427235733003
74.2637675622567
75.60708166493075
76.32517750295114
75.34895966377326
75.52090905038904
75.15372612506658
75.6751992857349
76.93542717838288
76.47971350621384
76.0246929018857
73.31942681748994
73.45288563340506
75.53512786388401
76.36103625198082
77.35020047864384
77.05131150412144
76.7679921316479
76.901222346856
77.97265473650036
78.42694971557069
78.19356852362584
78.46954519563887
77.45728688541516
78.20162849829936
77.67055785786141
75.23504480336754
73.54861969999513
71.95851706816748
74.54073551053334
76.2211703662759
77.3893576128051
76.34877864976043
75.75152076758225
75.10060636253219
75.21511143257547
77.21568791359724
79.25992068493035
80.80791033745334
83.55525901337538
86.08459115380221
85.1850646676249
84.19947741891441
82.17704275666864
81.79742270522812
77.3214203060513
73.24913488209457
67.52540030092595
70.23708957426042
74.8825163892378
75.39929730486452
72.8194176087245
70.46774690614754
70.74885666520824
73.2398548269381
75.02468235121512
74.83439866347842
74.56666787086768
72.40092636859926
72.11978560336604
72.59643384918735
71.3093583202753
68.99423834423196
66.23929602445745
67.65837299792553
69.65690364153497
74.29628446213883
77.23041685607909
79.06686609529397
78.75031022318257
76.20321425890303
74.47287661998067
73.68706463063532
72.66057965726888
70.4943391004888
70.32552315177476
70.84353411805898
72.87767685968412
73.95861832772754
72.81968367329019
72.21860991891546
73.0064798094925
71.61100390801154
71.96429755525486
70.59104095353638
70.87267369836201
71.74333837049245
72.45587276246798
73.84282238647845
75.39194952989402
76.94140685097628
76.18820845037027
75.65756906251954
76.37242120888936
77.19357874091534
78.04103534358406
77.40181259271928
78.76487623401103
77.24577546468873
74.81819096484577
71.09084807945841
67.78606736968088
72.67014887557096
78.02947302825072
78.57388692581031
77.98469331699131
77.02317547817222
74.8374874277279
74.91435392955937
71.2753322789117
70.0536518349397
71.66233642372065
71.52054965558
72.50378374699852
73.40840210212477
75.43233707541094
74.97325015368652
70.64680195316208
67.17473325000448
69.03364998944663
73.41546727774124
74.90965908173976
71.8195592549674
67.85331346133997
68.8850422194386
74.261860683088
77.60310682905711
78.0123653692998
77.45064708164549
80.60525698951301
84.38800525259799
87.72913546600698
87.80496906490973
86.7453808858842
89.6563437747563
94.54850497231055
99.66712003649195
102.95638104188886
103.62044516370656
103.13498337686892
97.94766304646333
89.78722936566132
81.14322252052912
73.19284327041946
79.95585893756818
86.50435129846808
89.56619600526572
91.3021241837817
92.20929131773029
93.95091356349097
94.09610555631511
91.53092081662425
89.49588355867917
88.73819111095868
87.14442544242766
84.13109723265154
77.75430639224724
72.73245486663004
73.00824093277099
73.563195524891
71.06083979336796
67.99584638076317
66.80247115279302
69.62663430359737
73.09815238795461
74.71367831186176
78.90557960736525
83.4466902808371
88.29078317228716
95.15220841232866
98.55648710152515
100.9116231253066
99.86358581708112
96.5494703912284
92.4477461099641
89.7228468985818
90.21653229223301
93.09620226619872
95.764333755194
96.95544947644042
97.05490157908575
97.99436357589126
98.22319271068454
99.07149781820091
99.86596825127052
100.28327118716061
101.2468484594253
99.55032921697305
95.98987837194221
91.87434917619245
88.75814854555756
88.01904796211134
88.50585970184412
88.00505664498307
85.85639758285765
83.78085912798869
81.42719009587726
80.44604511534314
79.12728615909913
76.32332073137131
72.21329695046092
72.02723915721596
74.3692205345273
74.7541690480996
74.28221299999531
73.64791626549084
75.4738687663633
78.26527597934677
81.31480517307998
84.18934065594492
87.52046557986448
88.9578661424321
88.66388793874
84.40481778201185
80.89524627295417
78.5774117320789
76.67750296668311
73.20958140764614
68.91440004698056
61.43768445386777
60.5699315958387
62.705296197502435
63.59816540404601
64.27885901187847
63.54606062592451
63.09129561946798
61.8374302647997
60.7392592163057
60.71484189003819
61.583551578301126
63.18348224429102
63.17736279616839
62.118745136866735
61.04364921443291
63.3369452670226
66.63172724466855
69.14812688531832
69.02625674575927
66.08188104652798
64.55502571273986
65.53178424180493
67.05669293745433
67.51750885965097
66.35997557297077
66.33062760720264
66.5300169062638
67.23500449633235
66.99249772845091
66.69620825504097
66.62979536115787
67.20839630280989
68.68544583180538
69.357317577703
69.60124456919525
68.49619853830848
69.47676311856168
70.4861981368664
72.40662701082134
73.15046686904697
72.53080466497198
72.78792347365982
72.77285761306001
72.914359983264
71.23532335054551
68.83365721315394
68.09118065772996
68.29652511350113
69.86471291286468
71.17735048002386
71.50442924121937
72.50876645053825
73.64135631424321
73.64213526129369
72.77585314860812
71.10161738478276
71.21657331202027
71.72496733088255
74.23553297931863
75.04351328125951
74.8497861146101
72.97675453472652
72.39574671423904
74.9575348143573
81.35172673513608
87.46196009838876
92.1532442077376
94.62189008126916
95.53741063131831
94.30977482791864
90.34447456700684
84.8182282483643
77.94723445519247
72.96491498204658
