69.33133569178202
74.23985397460334
80.68656756448847
83.98705209212287
86.6427412305486
87.26296543358187
85.31018458267123
81.27098201622162
75.133366812572
66.9605554525629
63.692639710452454
62.8211730186022
62.07432376984262
62.158273900858084
62.24359894209351
64.20792508834614
67.28325216412127
69.24507511111105
68.90454261066878
68.30507672643387
66.44354317309657
67.02780008446832
66.63820993330735
64.72621081526903
63.13115455516655
66.29295814482545
69.06563552535827
69.47105120830658
68.62741669131853
64.80657992333408
65.01823876841384
70.75260065347439
76.67080137423639
83.20034492363742
86.11446287460268
88.10279162937714
89.59983419487492
90.81199720616918
91.19195431927045
90.23664116763067
84.7745284439142
81.59494361193876
78.24060607933318
78.71620244008452
79.83229787617807
77.2428332631372
76.5656069559569
74.5861609349944
75.49401280015212
73.789742197411
71.39900404866417
65.59255125046553
60.50904772649464
61.95292585789099
63.85065786977184
67.03767198105346
71.0849511462163
74.80406193865392
78.12506456799598
76.9342836236621
73.39533210153692
66.56630909697948
63.26320585882819
57.518002881440566
61.46985858394316
64.88758911413571
65.00349484336314
65.34107959304993
60.37466737018293
61.063418904355466
65.34579785243504
69.23686586772654
70.1906641887132
68.72879228269443
62.84752197532459
61.40388175071676
62.7407534713124
64.00307919633383
62.26610657600039
60.26462742087527
57.61366130264137
56.42962261986689
56.23215437436086
56.87008055900685
57.25105364701884
57.772073895241796
58.32290027937348
59.78586435393413
60.43897913037048
60.10917883013849
58.64349367515596
58.325107510945095
58.38875003996499
59.02582993700437
57.997175577353495
58.137875592299736
57.61129959243576
58.02707907664459
59.304166637833724
60.29830972458622
61.55104703129681
61.34316097984624
60.42355995564782
59.80370373839173
62.020718791850356
65.7916919872211
70.69322305531266
70.50402587265381
68.00867166915648
64.48473548337799
60.57886020424255
60.13158886202076
60.22480702911995
59.109857141150876
59.573756331082485
60.13308978424099
59.95719008329453
60.23970161122925
60.364283483321046
60.21858551924773
59.799626027994876
58.62629719517566
57.13456348241835
56.15567233290485
56.945081972286935
58.60782000002148
59.21690375882249
59.21482743115858
59.03881934779967
61.26877800228412
61.740718304821414
62.21220495003711
59.96181221803163
58.33569824138556
58.953265210358964
59.70351647277064
60.13667942867465
59.99481685429081
59.32870443746683
59.132791675555005
59.510071984276955
60.33441093944753
60.45435511339941
59.960770997893846
58.91739059329476
58.5996356030083
59.290128096987196
60.10948543662526
59.94501471867885
59.49421837662724
59.57963939287841
59.77068238070177
59.49368588814678
58.33323095419354
57.571212912181416
58.747370036681595
59.959383137870546
61.046016855999355
60.0407441703724
58.874543107149485
57.894643849835006
58.06125430284366
58.047029609589
58.175697467231835
58.453177339235914
59.37200892665356
61.717762882176004
62.2353412561873
61.984542739553476
62.164543826048245
63.88296627743596
65.51052896176716
64.83865850170157
61.74943995267785
58.598839546697086
57.96743910222698
59.24542980979744
59.470020188887666
58.956498375328984
57.37357626546122
57.465647417285744
58.422779586780266
59.38211021462599
60.55467529479946
60.849378640614795
60.46863624301953
60.25549398392619
59.6780149646467
59.400510306082744
59.447019722099114
59.093645914158955
58.943358532381886
57.426856513351616
57.402388714207
57.036929152811176
58.63351233999419
59.62614652752293
60.82730603418635
60.29849038581621
60.197586917396954
60.046319275721665
61.17203145986772
61.849633318630076
62.018968347196584
60.45685794217523
61.15729516827853
62.163335065321554
62.80250303926386
63.567567954766645
64.33704158950975
64.64322703549962
67.75479144162898
70.46652363933367
69.86077414289599
68.59590664311688
63.8602754694354
60.82537878317494
60.84835283909228
60.75036042393135
60.73691734564444
60.847529236411155
61.10526833228038
61.289754379465464
59.802055133155235
62.83496850989045
66.76962998848275
65.19270239407065
64.02308279685964
58.466568354817646
56.92824746314796
58.61241568976384
59.73020489126113
60.09278372444586
59.56567916017896
58.30917385606729
58.503416882221025
58.87852241154411
58.89603117557913
59.39591731623415
58.521816932409884
58.00516187025629
57.59985628238883
59.178180419598434
59.19892297017309
59.52619934807742
59.369499995886606
60.051818528416916
62.545836964355324
61.60900026165198
60.89475721612555
60.42187888012995
61.549426017391205
61.74642496465585
62.17826401969599
60.64795747238226
60.855700443482846
60.636600986992896
61.36273329843941
60.83474769674556
60.7874802818509
60.50485737230354
59.606416200666175
60.07819222161633
62.54968368970901
63.92679330004147
64.17141439434359
62.99448513775464
61.353838077325136
61.45069452502702
62.33417611350547
63.39225739909892
64.73392846949807
65.21677325101024
64.71464017403461
63.25699841787423
61.46285202691421
61.36340448322742
61.23209937611528
60.704549525180575
60.02225721060287
59.63965036420253
60.310910965370866
60.00970220140024
60.264553820143355
59.46254661112015
59.43734176927003
59.97497545796158
62.28574745496261
64.66665856330603
66.57807326322899
67.2685155051455
67.47603673294054
66.96384089165886
65.33684039635779
64.14481386574897
62.65807300568266
61.22088311680227
59.68436405901587
58.551815725081866
58.46962974733344
57.9017643930513
57.33406969252855
57.19488685760542
57.47254173545026
58.384828458072285
58.61082212055872
59.08279637448311
59.30061883771125
59.5772325831863
58.95619733804458
59.540256079569566
59.34122327583704
59.98034375208925
60.06665383996319
60.5941689212308
60.83496007504122
62.64036939592717
62.51183431493525
62.36210934631522
62.748531892726206
64.50025959759981
63.942087143348154
64.47947648858408
61.83920249057419
61.389352159766894
60.599146792927634
60.696659553024105
60.659293848800566
63.43984284563043
64.38282281584077
70.73080667876124
74.1552555593718
78.11571979854241
82.0236056083526
85.63586612611452
85.7553824543078
84.12705485605474
78.69056000372626
76.00293062969513
77.94273682383522
79.58506666422548
80.00782266717374
78.26592272154224
78.04423744791669
77.51597410748975
74.39505943278864
71.19380967119199
66.57013042006912
67.60253881283234
71.71750829590269
73.87632554254584
75.08323010375773
75.39171627796829
74.38799649019145
74.90217028365426
76.85338064806707
77.7357418733521
79.29753469177595
82.19654078554602
85.4648876512326
86.8576838293525
87.289562416453
82.90737094983186
75.83964312962009
70.51803887100499
69.92666917834228
73.60369893643013
77.78496530026494
82.17244079643675
85.70785654382966
88.57484103478019
89.74650610271823
91.01498635748301
91.11250431307046
91.9542224580192
93.10169434062192
93.67869257229829
92.57862331778783
90.22204877293902
87.8248858106241
84.7171304410056
84.41341840501009
85.2558194866969
86.6088098036388
86.78878174013121
86.43861036290572
84.72317901934986
83.83387672439628
84.93605979847504
87.0993677999628
87.17759479165301
87.05672418469709
88.9978405189508
87.49254369530505
86.57684125769646
84.32331832358749
80.9896603938919
81.20042369455163
81.65163944323388
81.86802251399438
82.40385504541901
82.36851894938911
83.856109728
84.3204615239143
85.68176673397723
87.25799254091491
86.70789264367755
87.88350834290169
89.53186293788958
90.01588326199206
92.01423692506998
92.2732821002076
91.8783401005116
92.48498712198047
94.06875488033995
95.13837680445731
96.9037883512014
97.0272119498823
97.77499013779787
97.83298580745453
98.69484453485425
100.76080924897911
102.20680509242611
103.8385075066272
104.6482506021088
105.81867673492815
106.31283965199783
107.28653608530522
108.3447775497925
109.18432678701463
110.32011191730062
111.07722946362021
110.78795227452375
111.00246629301485
111.47741012192488
112.59109844162387
114.46175888040509
115.22997946960254
115.88277370413765
115.91835644124642
115.5079752570966
114.16377319232552
113.36456600428866
113.52213962888813
113.84735148076682
114.3218755852637
114.62678465065413
114.2214779152651
114.09605511161219
114.04868786390887
113.76497685118423
114.32585965635258
115.03863678338065
116.5782756601891
118.1393050599863
118.49133066742847
117.75737467418075
116.83156536174977
116.59164512599276
116.9126361729195
117.84781013417849
118.01063325947563
118.1207969279297
117.815652455231
117.34608395753939
117.6523424942401
117.47816526262771
117.726953017483
116.95449178946798
116.81177880733222
116.6207956018725
117.35840536223739
118.92767664655014
120.49806694787374
121.58257501470761
122.25609537330442
122.59127433615001
123.35245450405176
124.19893310142957
124.36913990304046
124.52072014423398
124.41143313321666
124.52748269619083
125.10140172301243
125.0502466746872
125.40308972286462
126.73103587908759
126.16905493561627
123.99698081736807
121.03558005535197
116.64128140643719
116.175665859741
115.3267992735044
113.66181682784575
110.00584333139389
106.43281772579401
104.06786707312538
103.71879944056893
102.21466988291358
99.89179581275343
97.96370948433919
98.15696639520762
96.50110686762976
96.838297002214
96.79644155256535
96.44290563633194
93.35811706052347
92.05853519117586
90.54354594651053
92.45469359016585
92.51203341016259
91.18060336515605
90.43951559249024
90.45545993880712
90.91717167938587
89.97590487369422
89.37830065901026
90.2875058545485
91.7040293348209
93.7587024640216
92.21319608079666
88.94283842558421
87.31942085037265
84.95087024611493
85.59023947289185
85.00362871522847
84.71307927972224
83.42602287781764
83.35726501644135
82.50079130057392
81.61756364357694
80.79887810577911
79.56157723744357
78.079874455738
78.96428902871824
81.04798416680674
83.74230646231683
84.19591332723725
85.41035289023927
86.80218278707468
89.14614060793336
91.29939480445799
91.29005020725126
92.76228558902302
93.38911038716736
93.17036513699162
94.07346509982285
92.04927850346616
92.3523711508447
94.23653749442396
95.2469738018943
97.07831492107572
97.22501113125016
97.0087979982646
98.19701724794761
101.2604279230158
102.75301539936163
105.68535023822724
107.12621425059298
108.17551137586678
108.71785532808431
109.05848143035784
109.30839149572196
110.25649037050921
111.23370130944711
112.456706527639
114.08233589633498
115.1160235824739
115.9909680605587
117.29095372423426
118.64390101813599
119.88816034270477
120.37612752866086
120.39783332080431
120.68057151230673
120.86162475020247
121.00074731498243
120.26758614090203
119.9164950067115
119.71148298083448
119.23761053940515
119.01340865586808
118.60454689062084
118.71773550682047
119.74111762783673
121.01427334644295
122.11194975774401
122.78864464377371
123.05389804142557
123.12955715852974
122.83674901828593
123.17506939070333
123.4046068568473
124.19920501127436
124.48817512544208
124.41470722209752
124.24436560224152
123.8059545240764
123.44363938114002
123.10305833311476
123.08147426565546
123.34303569884852
123.8545553656012
124.56308457866378
124.83235235190368
124.96122445155328
124.96359492862678
125.12629747223286
125.38261042250004
125.7566172603891
125.9218130273467
126.34780724507556
125.99793142055688
125.6237335653154
124.33687896651419
122.02259096444693
119.69098450698104
117.0198350134365
115.85335487294651
115.72308393774004
115.38835665539138
115.19068871657612
113.25712960417009
111.46981448254432
109.58335657170622
107.8398149675547
106.08887215875104
104.25606161293689
101.79789462009565
100.98035492119448
100.76236627894137
100.63108063121038
99.98179948467222
98.78577550282017
99.03635876263762
98.77295635011417
99.48461183000148
99.12388674530332
97.87755005975895
96.95416307134185
94.69904847027631
94.19211468154269
93.48180448381534
92.65524259599803
92.56721722475511
92.6591096813191
93.9557297685244
94.13005369367521
93.40582285909677
93.17390579178546
93.09176768951265
93.61302650826042
93.29139532605586
92.79260195494496
92.33885912591917
92.99324180250643
93.04642520348274
92.61892408530316
91.58530981981464
90.66395414800935
91.38374616532779
91.09239775861289
90.4020652240644
89.99199232814014
89.70946767798658
90.60843171032234
90.3169956400261
90.05278127630316
90.21850402682308
89.59382025581047
89.01649803213265
87.6787501536984
86.69748627105415
86.13802903242994
87.30662444165166
88.29376627913437
89.25895482217949
88.95653018063078
87.27677815872516
86.29257952264909
84.14825936853403
83.37168420772174
82.01409015839003
81.3372195633218
82.33048577130225
82.72233217323065
82.18520213118686
79.34274577808023
77.59018650619791
77.64528405895865
79.70912648614214
81.58098602571077
84.09602261260159
85.50716543238994
82.26228918586848
79.61027474953553
78.65585057757355
82.20232919978449
81.71552021252062
79.07343262350611
73.25484040118666
71.09854917213556
76.52650850632489
80.07920977331914
81.96850985485081
80.01786828827908
79.09335004700556
78.83989224909214
75.96532040571421
76.25689416924294
76.70466871865676
81.42278772597095
84.37581876693073
84.07534905049513
81.43796659433336
79.9469395066569
82.04791914176468
84.28638039029313
85.3953582343049
86.61937973197504
85.3932011695848
85.2173550806355
84.04950841846961
84.39688429605243
86.40510704950458
85.28375919500235
83.92275203304857
82.06794605284023
79.28395842881176
79.37612039147322
79.66662508605646
77.45358558583712
75.23628909986517
72.52407543229525
73.97174580297876
78.61633755143728
79.61053399546448
78.8580333357691
77.20665591783762
76.74238546142554
79.25921769322684
80.92450392286132
80.87894776237643
79.4312316732957
78.98510228993285
79.80324613401164
80.57981086150605
81.99884566088919
83.65018163194954
84.2975418064936
84.27436783943229
81.8476878830793
79.4273691674534
79.77638786352952
82.80006930002031
85.50230074022282
85.20321171772288
83.0841715629209
80.1477567000978
78.33505803686172
79.15439293087897
81.52395731381833
83.34948315644871
85.78352828885734
86.43225249745825
87.38488886803536
88.64667931452975
88.37462288172298
88.22012212851021
87.81345538534596
85.54401053744519
86.41917517509033
87.31906380971155
86.43149766667187
84.3872218353964
83.29325587044141
83.09557650347713
83.60469873933708
81.97466380196916
80.47892974792273
80.26519291979989
85.33698404259118
88.01613152007116
88.33176171126266
87.58443433136983
84.90760666472355
83.59797917813708
85.54259211064787
87.71644127203102
88.73831378922719
86.64557303232789
81.44052167579238
80.20714881559829
82.65452345863758
85.05429049004294
81.59123002207642
77.17523203250565
76.04345542601429
77.81020966524748
80.75685750321807
80.28468134020295
79.73293605533941
79.876936815915
80.32347786842014
79.53782060541627
79.21690543604963
80.93861325432354
84.63750459154178
83.82183944671685
79.41994015001279
72.5906213806581
67.7913321318635
74.84465592624511
78.99642662350463
80.51054735830249
80.49884417644286
77.307152081882
79.26887135313096
82.0733768156468
83.28785759466965
83.62113244705697
82.44015303915141
84.06758226213313
88.00476453106458
90.23943703485625
91.34807954283309
92.85846403768089
94.73206512473449
96.79777167835118
96.81703228233062
92.98835774742155
90.30145016724205
88.61166760992374
87.96381079636677
88.97808483741225
88.0956181933341
88.2509013434936
90.2380223743225
89.44871242227067
86.49188766497686
83.14810530605614
80.51331520058409
83.88359220918481
85.37612768714278
85.0094389490898
82.51216380636102
82.03069899248962
82.18801301674165
84.17664267632034
86.24419226606278
87.46222167390428
87.89749718651807
88.59592652239103
89.70192056933182
90.14704943076723
89.02803785706014
87.13642764470889
85.74779513699737
86.86473044129917
88.7545363749289
89.03227368945642
87.62455319033968
86.51243777093087
88.37553954801582
88.98214657645735
89.56258379586971
90.83524949312694
90.24447819860798
89.89490435656465
89.73322701965733
88.36701521906537
88.09018616689988
87.99840953423201
89.62129723091488
93.47784145889796
96.33059937520521
95.16260616254094
91.50327420378011
87.35391346010468
87.98174137370535
90.71417821090806
91.24857342999354
88.67833559240246
83.92837124560894
81.80926273866422
81.80194459710623
82.28586546476363
83.36576995202572
82.65749084409934
81.75974139563208
80.79288644264395
80.77617039707778
83.65574986707313
85.48586155652464
88.0172372837027
90.76164222303736
91.76236389025178
90.81665143346282
89.56633002885411
88.13413542012174
88.74360077389719
88.54745189430413
87.02626936272772
86.07475681884479
83.9208264952268
85.11663219754683
86.90727933709712
87.86622417904204
90.17908816537592
90.46372741755606
89.42676894203446
90.35366818865263
89.76746333634603
91.22874945077906
91.20478638499429
89.23329390209801
87.80633452356822
87.56143505999424
88.2793366574269
89.62667970878746
89.09469555431231
87.11187698911925
86.46368539654969
83.8527032856247
82.10846003552098
81.12925440896556
80.46206794780736
83.56309287973879
82.0144535647946
79.84128652203253
75.05900914407376
72.67930565761256
74.52103294708205
75.60331757775377
78.46775727898519
80.18199769184851
79.5810229284786
75.99794841558398
74.69926267522659
76.37798200744717
80.76345697007585
83.51681761111632
80.5858864683477
76.80796797125555
78.21235786806801
82.06774014978598
88.41441602316432
89.34632778513105
91.08923626541713
91.65623017885157
92.49178235634497
95.10395296682593
96.06472349118174
96.19036887596921
95.19614390074622
94.29841142016416
95.33837608360442
97.35008530973023
99.17870788920521
100.04112299956307
100.00360833645594
98.99396805277003
97.25154976638197
95.87451610125181
95.1998831815324
95.66552597531836
97.72849215058496
98.30409227481016
97.86481594247022
96.7304422287059
94.9390581416688
94.86765044081763
96.05413026596797
96.12324364416277
94.8177633821815
92.46197715270534
89.28630366433437
88.22228204657125
88.67230607285815
91.54802874455028
94.76161053268001
96.32526989446497
98.23966100936768
99.00037290133872
98.96847941349957
97.91650167836818
95.4687550350654
93.05679977363356
92.72793516438146
94.44213256025083
95.45335910201645
96.85451611521412
96.75633448508131
97.4889143437959
98.55718764293151
98.334272104581
98.3996210340401
97.91391501808005
97.95250695913461
98.9885128891405
99.813066827934
99.76052152984242
99.35163921683463
98.71226692941063
97.85403928689026
97.37368826076016
96.10645676702893
95.73625036522759
95.58151700645699
96.46253363999467
98.52013286876237
99.501150234367
98.80227813073846
97.39007376283901
96.34491032179461
95.08523055201579
95.79069520647613
95.37296016503866
95.21347781687876
95.46316640306554
94.11904236345418
94.97079474342534
95.0086425281961
95.83197512218437
97.27946491301837
97.41877841892456
98.36900949268333
99.00032559241549
99.15217875186427
99.0937659113054
100.2127224546009
102.41053657206479
103.65106380609043
104.8713135641994
104.80281200085248
104.31140865586106
104.2046167408511
103.79617500636706
102.33905171441977
101.90078800181186
102.63820479731194
104.92127478373737
107.30538105539434
106.82617856631931
105.22038187110586
102.36989928313623
101.57702680649487
103.28409876422762
104.818097323724
105.20148742125413
101.6319217902955
98.4080605845031
94.33088935919568
93.79596072675598
94.22213769475935
95.23148603559129
95.93674816951732
94.21268276858868
93.02130181355042
91.50245929068015
89.3879491172868
89.10184409562386
86.68617913513229
83.55023490378748
85.34591679252205
86.02120541675545
87.28208279500373
88.82860615008381
90.5643327005018
91.9313127152497
92.13676337819548
87.82757082621718
84.27587613769211
80.77345180280074
84.06659023356228
89.27109439713966
93.82464130581889
93.16770793438134
89.32061547136009
82.12561754772663
79.28067070700315
80.56323316505147
83.52812886101303
86.5686974395214
88.8806861022448
87.59736552035889
84.75632327804831
80.22898821399414
75.41705988948175
78.01340751682187
82.54276754461056
83.32634350373615
84.69925669107077
85.54332646855435
88.29445994935294
92.70416991259492
90.48653196390859
88.69051868271934
86.65129812540161
86.47392952757535
90.77007486745661
90.24658631469123
90.21240097012857
90.04659489951553
91.04902419808212
91.0724982849457
90.12700243854256
88.00331311592285
87.02783829952595
84.92290701731318
84.11058883384493
85.09507714582394
86.98235742294543
88.49468139344813
86.0946335410179
83.21217255409641
82.02938249085666
84.36750158243645
86.22855323906957
85.83882612419936
82.08192571019849
79.364987409232
77.65934002806037
80.52464347012184
85.17518518570093
86.61938961288071
86.73643779570901
84.1037810259716
82.63453728477434
82.52752135163928
81.65787968665686
81.98428640562881
82.82281879970434
84.44556053253879
86.9637275713167
87.5739103899058
85.06681593675715
82.5867046273676
80.56151578783809
83.95839909863967
87.0140848350636
86.38315972790397
82.72938880834678
79.80622865027796
83.90177625227017
88.39450667237166
92.29593718906979
94.7352780306709
92.83255871246011
90.80752094250302
91.29623780013267
91.13151427756543
89.66555972422252
86.81925649711069
82.34387296964958
79.8263897992083
82.40459555126154
82.9088548652007
81.82052841119541
80.95398401468927
81.1024868161
85.27699373388609
90.50554259795999
92.7964114762013
93.52472332620215
92.27540172112371
90.57650977071957
89.89116295411348
90.1735760654186
90.76122619605935
90.8214661680873
91.323245316666
93.13732251079846
92.80426058142561
92.3409960245087
90.77241265813588
88.7498771932036
88.14243751923026
86.66641057239096
86.85994479659487
89.4184378797337
93.16999287307554
96.21476254752919
97.80298894576879
97.56289395967535
95.29713250908357
93.66231877692235
91.52016643713044
88.31488272667814
86.26966050456024
83.36937431014698
84.02999435548674
86.58266659828176
86.59083981804996
86.20528689405278
84.53644209747534
83.88163922215062
81.46095455039588
79.14908324016814
79.67352922976399
82.72508887718291
88.82300999414949
91.87289254110047
92.82146542618025
93.11575306432087
93.85652134003777
95.19944233269477
96.88927410241894
99.16356582371948
101.38490604481008
103.56572471343581
105.00892275298294
106.62239548333955
108.7561972105833
110.67249148253376
112.21109886542106
112.28831538995732
111.26879365182496
110.8361296099342
111.17632189912597
112.6516641049702
114.38779890509007
115.97863098847856
117.79314223813999
119.02142234563122
119.94022784703988
120.23488596168185
120.14342984766441
119.89451303889409
119.35036690821097
118.89667051461542
119.12344512816898
119.64909687532848
120.5900127486576
121.32487631970484
121.64939367940137
121.76627283563133
121.93281182654695
122.00455351608502
121.77213443533103
121.06952878860419
120.64953574188306
119.97013021537968
119.29312165841249
118.33849365192978
117.66287326615117
117.77040526827349
118.14639418356676
119.03393898490587
119.2580232408874
119.12520753564402
118.83636831935264
118.29469861146644
117.91547820380924
117.30702445465333
116.70066411292268
116.24254150536972
116.41733939530947
116.83011157252898
116.78899846992175
116.3634785603377
115.44283270345446
112.81810514267637
112.01392364763312
111.20160472390064
111.40720789832838
111.78857816653488
111.07124891796671
109.60122790116307
108.99947751438607
108.81895690951893
108.81682293449163
109.15915634374039
108.6282153077094
108.64265533547663
109.55768036917463
110.50544945569436
111.59997477505878
112.26345875591157
113.33232936831642
114.69326808879156
116.58103801944351
117.21671698214548
115.53941685976888
112.87322737106717
110.212522402347
109.03874045827048
107.62815221644608
105.98770099023326
105.03425081861627
104.82287148629733
105.12136613872502
105.60103639725675
105.2263926802379
105.51540425803934
107.77886886598226
109.8924601854699
111.02666986043776
111.78974698222922
111.19233894783892
110.56671179650871
111.30968355211759
113.12003688866695
116.71336398108551
120.76070691527055
125.85323417898996
128.91663310886153
131.10430528235102
131.9903148339059
131.82758507835607
131.40459660462406
130.45657082676843
128.86962554424048
127.59533269974898
127.24811863442648
127.96524390122065
128.7655507531988
129.49522825404244
129.26394268826948
129.18993271717483
129.5938386915993
129.8620475919536
129.5439953820662
128.4657557172436
127.08967596470039
125.83914765717013
124.52175513140641
123.2884378219365
121.93748179393205
120.61100276534152
120.10659859287126
120.04183684363866
121.56338122998046
122.81036334329356
123.25011183933881
122.74311003305642
121.84763604325119
121.28087945816995
121.35073014056663
120.88398308411759
120.60395284842251
120.12127451848363
119.2297365508334
118.92050677000147
119.8688703571069
120.72486433688215
120.92622487920458
119.710934457654
117.88265332065109
116.53029525412441
116.42077501455645
117.01224466907713
117.83810444344894
119.11554523666311
119.66730852070077
119.69099401081854
119.14547762460234
118.98781165441925
118.51427512672358
117.71645123018848
116.59342692190341
115.91172527784826
115.79253133706688
115.66526191019733
115.73013730463005
115.50353574960518
114.79710055124374
113.8805224709292
112.69497714974783
111.42336157961957
111.58147462443353
111.6454866301842
110.41416634577993
106.87827841380515
99.53700423320475
92.61554860285118
90.58596739312634
90.9995258356858
91.51638480170995
90.70508009487489
89.70392845265789
92.88670642277924
96.40489709770277
100.61910218176908
103.60354607527431
104.28455600129486
105.55147680541607
104.87491716684575
103.85188821680867
102.55510899654604
101.91659860978582
99.21762166667914
97.74279933337455
96.89590241400292
96.78236211422956
96.98161010293835
96.18367546947034
95.91919812787064
94.8787915683416
94.45142039441909
94.10196729354284
94.7357660777789
95.53042619063433
95.46103067073591
95.48639265749931
94.63508356848833
94.001741202149
93.94353787503697
94.00115677616407
93.08837831358652
92.07209360295172
91.89176198984464
93.6616264229333
96.89972703726353
99.75831628829867
100.63537768329176
98.73049260921891
96.89007753613312
93.31833837629915
90.7238232138501
89.00061110646864
89.200653569948
90.50730189063579
90.9417840691302
90.60730998610397
89.24374090354722
90.23768068661506
91.50949623677252
92.7834903025249
91.40552826361338
89.56628623580114
88.4879889827434
88.60054915600324
89.44191356255493
89.6225677164362
90.65677108225655
90.45744528563688
90.73336703693971
91.35779461742766
90.33347470312155
88.79299196189783
87.33617068231769
86.35233535213219
88.18659328579616
89.49740800432346
90.33368713426142
90.82426090499597
91.73268124525397
93.62076389964545
95.80254884471488
98.00995731987621
99.95554107577338
101.30876422860375
100.65041921397888
101.1324650494719
101.49997866701733
103.2715657800476
103.0525319456258
102.59787621107859
101.89574038640885
101.5994753946776
101.78053751897002
101.54904935951889
101.59591855507233
101.51608808921095
102.63926892901698
102.33594962198701
102.75332262831873
104.18418946348615
104.3000459805237
104.90328803474593
103.07398333733333
101.90278041456828
103.13688166143778
104.41948907560892
106.2857552905598
106.52452177740943
104.55560943689589
103.51639663880043
102.63834290199081
103.10880537058735
103.78308357435236
104.72386467584087
103.60728820549195
102.68428453084698
101.7126899795337
101.86439050389677
102.43331115671664
102.7453938792139
102.01023223200974
100.71978017353037
100.40512731868002
100.92110194107295
102.07414733533544
100.94258787574316
99.44818807114245
99.06643060011685
100.18784306408617
100.66467927064893
100.68522000260988
98.51588152874119
97.1401316598719
98.43619737346414
97.83435290796545
97.07367109363213
95.27947129089276
94.2217169820222
94.5315935881418
94.12744707503795
93.94572578017937
94.64923348428648
95.24923079981517
97.0755731742508
96.98986744176004
95.35748558117002
94.28545361406354
92.88721186128072
92.76297789613636
94.23812250714974
95.58319121607296
94.61187726190376
94.36599442794972
95.05519111508266
95.19511136780525
95.57433478298732
95.1023909773195
94.5602845377689
93.37170447813249
93.71937737320683
93.78138379979116
94.38561680316751
95.97148904930992
95.08252613835258
93.95026352749234
93.47137814254853
94.63012485725352
95.00413231705188
95.2423994891838
94.98503575527852
94.62071931559434
96.46247579557179
97.4974773012893
96.09545304538301
94.67743966262047
93.53926247851933
93.81955482352554
95.81528731500818
96.73520442309535
96.45214633111281
97.2194026326353
97.5802596002117
97.64062852974736
96.967517789098
97.02311956455468
97.82348598743273
100.42955098322263
100.56670103480496
98.9447454588659
98.0899692713743
97.18200923328583
97.88863523094919
98.4474345199471
99.27334443805682
99.68287152461583
100.52592112209544
100.3399644739713
99.1880088112818
96.95594470127035
96.12333477217481
96.78409176804676
99.1729885398626
101.08404678644526
101.59134021656052
102.39823672335102
102.5644141508972
102.76183564185035
102.24402327324327
100.54791815415668
98.85366882476251
96.75415141867167
94.48584001571784
94.82575264890023
96.16119687249568
96.50617545776987
95.90447430691819
95.34440402342162
95.15175072239431
97.39136697013105
96.3977220730576
92.92949471619379
88.85332011496168
89.1287462086364
94.47858834378691
96.6615889564313
95.225590550689
93.47162394846264
89.39591515217096
91.08315073832385
89.0429591650404
89.05799353161215
90.22641192424899
92.53300861743554
96.84203584502905
96.24134263516466
92.08633638470565
83.12735952980006
76.53873567916642
77.99464436218038
78.80542609327905
79.20967854814356
79.18071125101321
78.80733825818511
83.01510620876603
82.57256892805546
81.3038890241287
80.13027171040255
78.8756974845986
78.21621848540698
75.5911505326315
74.96521453789518
74.55943865869132
75.0064452250536
76.02118872796352
76.03530098535153
75.87334233027002
73.79971456424069
72.582878507706
74.55810703495705
79.11639185330475
79.92603182790862
75.03204706476373
71.79805590998618
69.61956971998652
72.70384699666721
75.19650670530751
74.65664949895856
76.50252212864228
77.39967686815153
81.31081749944623
80.41995008511635
80.89282689628422
81.91264363196076
83.26159954546225
82.46425636597422
77.58880264173395
73.62694004109616
77.52624875789951
83.14839274980748
88.49316839628719
88.40101331124391
88.4100285868889
87.65241095047885
87.49174687228901
90.41285944470478
91.52336132501826
93.90596105555555
93.19735240851179
90.60773223593996
89.36580584007972
91.76012294099353
95.0760744535799
97.41234892906458
98.88953272157515
98.4654214821232
98.88387918535396
99.6235060509512
100.35000341470092
102.05567263981534
102.61030957074354
103.8898652559404
103.03082922017212
101.68282622147271
100.51513520827893
99.88417808340176
101.9165122380357
103.22391516404285
101.17667297118577
97.45676669176392
93.05556919760943
88.21770162533836
92.12109904776763
94.70238913824441
96.75380031024753
94.04788743990417
87.37291873594236
83.51581872163085
82.33701018663407
85.87264587050437
88.81910548089883
89.9627642047552
90.52950818467693
89.05482224694973
88.86528101540607
89.98256099676269
89.9386440656857
89.5468888957431
88.31435167234402
85.49753841929365
86.53536718010109
86.60703206221447
86.37703167337487
83.09777400740865
79.52786111654838
80.39899108189579
81.22987823915925
82.97221091713753
83.2467954596278
79.15495896564784
77.72891001241352
77.83038495389863
78.16209001603576
76.28367553867916
74.33915798374049
72.83022168907937
77.08081531041019
81.52247768979034
83.00324978434836
80.90454123597374
77.52990761863111
76.07933977730153
77.05454753391354
78.58464499584532
78.18122575232618
77.15728998942966
77.14728154811205
78.48950562128043
78.96648717812792
79.18088963007345
78.48595994243925
80.98992737068662
82.01228013248574
83.22303684303718
85.84441524540064
85.75834557500221
86.42384213782215
87.46981221152555
86.56274108895349
85.0502881407021
84.46858329830998
81.37775786133597
80.3526650047938
82.13617481261922
79.29682290709943
77.6549609204735
74.49976821244236
73.57190138874569
76.75704162507117
79.57015405937035
79.83189781585189
77.35352966043044
79.60688729851316
81.90322523877659
84.99852910602185
85.3470230857652
81.75671741797427
75.86424367391027
77.34804834887866
81.15242327672914
84.42245016474797
87.15508922874463
87.85510799737011
88.2342541721612
85.10711334457217
82.41393918399697
78.6674917117703
77.55064087293923
78.89221821381858
77.91851684398898
77.84436310262097
77.29240144122112
80.5631512137185
81.41404654074373
79.9077137360118
76.98632277003915
72.95769412834527
74.15381804652145
79.15677171857408
80.1888215216418
79.24393193109853
78.90838749085106
77.42337292465501
82.05336849615767
82.97002483230493
82.07795622517861
79.70889054569378
80.20546990963675
82.17012464217949
86.48734337477843
87.76814117229812
85.75078292564685
82.14474523550943
80.0767424733948
81.18569283271277
82.41385168552708
82.6777869739786
82.31904183191058
83.57845406159521
84.88537990364871
82.99354379974083
82.50878545863218
82.65097937231734
84.40443110736162
84.4917415277436
82.53916112570393
82.0700479351643
83.75684894959014
85.74377205236209
88.93697481334752
91.69122721858169
88.52045212943874
81.93413954586475
72.95180055416728
70.06201752830263
75.85848068067618
80.8135424476639
84.10546036333878
85.38517284569238
86.4232006800326
85.92981876715919
85.8810336685086
84.44010532737066
85.93020001383955
88.7526360908637
89.9627425802684
90.22613547738263
91.20019396315706
89.31444143547513
85.6976430505923
79.35685913423725
69.43347558421391
67.81436757649448
72.74975737872313
75.30546976987733
77.44131366712233
76.02700775941976
75.17143039518518
77.35929194087879
76.99993945622717
76.96885043925148
78.40701342746394
79.85886817279399
83.60717562930509
83.57104818621629
82.04990470610005
80.91202837568446
81.79215905024425
83.67013640444627
83.30086731974464
83.32452681427961
84.58853542658912
83.786045191179
84.38320037819202
83.59517884798302
80.92431669692368
81.94297667188565
82.3009415375353
82.69409206273356
85.00804093563083
86.00338498602189
85.98962034327839
86.44048894783805
85.2322087970599
82.95005306947505
84.03524484374735
84.83421331364711
85.18606560718085
84.94935812301262
81.33644867784466
82.39033838017393
83.74056287263461
84.7660662453912
81.71947056265115
78.2845586723042
78.00052135390591
78.62592587049463
78.16479137179773
77.87198079323282
79.3573976901595
83.0331779269297
84.23549533985386
84.1333210515505
83.7859545495015
84.9428773275482
86.86193925649192
86.41011232267712
85.07218375081119
84.32981487040122
84.66778752718818
81.92590316525958
77.80902304900658
76.23056324570001
78.46512687184189
81.73032844405495
80.50276856992063
78.02445063476259
77.11200580470873
78.8757852767674
80.89575461534824
79.0511789023029
77.7836552051854
80.13699603540799
79.43592044220449
79.97233902574054
78.30481045207699
78.7276529800543
82.46456952364369
86.26748686954114
84.87242955777012
79.5242348740994
71.02088529556244
65.71373070334278
68.62565065416334
71.63093956226808
72.99942757797685
72.32003482016786
71.98899505352321
75.86869129930818
78.17084819406423
78.51307734966579
79.61198961741619
79.96268187196287
84.32573188455385
83.03419926706663
80.69628731091177
74.7406104932595
73.81943450763136
79.99787189400978
83.44842532351728
84.65652887176584
84.01752331772687
80.041591639438
82.7722448809347
84.94946928651373
85.8532992816202
86.19689021142244
85.26949747498139
85.32373968709801
85.60565939796106
84.11510877356932
83.39775381355952
84.08103196781072
87.33895785816004
88.92861324436736
86.88448365194279
81.82924611798445
75.05156702921491
73.21652529830322
75.08833187656407
76.17479716798871
76.95428558700291
77.17556720398981
78.32984202831095
80.37174540529925
78.66725353308269
76.56352610806606
78.03779915366441
81.32937760356208
84.90771221957053
84.21503369402244
81.93556146370749
82.09730845037852
84.27613585602994
83.02222855352177
79.62242564616574
76.89124462777886
79.51288899607121
81.98308576812404
81.09638175225771
78.95456190504822
80.82477957064285
83.49061836867298
85.24016950303427
86.7624586934146
85.19184697819364
84.59263614015316
83.97350396467563
83.43632711776884
84.99532606358096
85.9252355231846
84.2571199375648
81.42913496589738
78.16758800804242
77.83628859282436
79.01527143046934
79.20662250888255
79.19911470358872
78.2502713562187
78.267316384989
79.31481247194651
80.68089872231602
85.95791158387473
90.31214110534117
90.55650979451877
88.68299451464486
85.95409696763853
85.88747405219198
85.97880002210754
83.54638736765712
77.33312564038457
73.08532868680237
72.9456000154311
75.7886945956126
76.19157057665694
76.77789401354643
78.93042752207165
81.380360317995
81.96758893828097
80.82239044335827
79.49511661138712
79.08302887935118
79.79058351058158
80.96462400547719
80.56616389587089
79.20054702113131
77.88607196526347
77.06856348047064
77.14368393456925
78.55610449154047
78.382593669967
78.01214793272806
79.18144559317739
79.88946251203531
81.19421582427022
78.24814826759412
74.8864308369372
70.19962346317506
68.91483141913724
69.07433317742345
69.14855757800514
69.35029837699406
70.08348369833581
70.94310393588269
72.57479884207257
74.10396724249576
75.25903058794584
75.82239661498586
75.79068612213776
76.16706267915833
76.10737891486423
74.73797407631773
72.47981397409035
71.20410831371835
72.07250610406552
74.15752680275806
75.36500549290588
76.61216365056525
77.34159593392138
77.87838758340592
78.64047245479033
79.18344754962507
80.68118716923126
81.17680888786767
82.55243660936569
81.77576672072654
82.44741297713277
82.9142703714119
81.07036920480266
78.68803608808655
75.2324064573065
72.41014430380092
75.71490618776254
80.82315798686663
80.94468343206418
79.84272492069104
78.42929342753193
78.18564179672707
83.58644317677933
83.97337377965452
81.56305050115498
78.16780653265596
77.3256222656085
80.58093695820436
82.31480221021816
82.18652187336387
78.76800524195198
76.40976374586927
76.38970080487414
78.93480718151366
80.26156725666128
77.49212081860836
75.47035289473659
75.18198636433442
79.43893754682736
81.84468950056001
79.23229312715905
76.55347666107616
76.17968475972148
81.60995088943335
83.79701354624059
82.29566535197469
79.16687532932772
76.36122919227542
76.77640304257983
78.08030114397634
82.36147323767858
83.4775420515904
83.44959268446483
81.69271149403339
76.19878561095219
74.74458782928397
72.59379430213609
72.96672566007388
76.6575129837443
79.73175047130347
79.71350596442046
77.88244235270298
72.33761383513347
74.01439622369483
76.44852730506209
79.76401241834375
80.15733871152416
79.80410935317566
80.91099470531421
81.75963839279953
81.9362958870699
82.98935111040024
83.9914280358264
84.38554362146795
85.07267782809056
84.5625530659051
84.25904545870424
83.27917578213211
81.3879916483614
79.96349700095882
79.599843229693
79.83458104725494
80.9214483317963
83.01284533418001
82.56617017670034
83.21138217492833
81.55288463593288
81.71688877742527
83.98204181619712
82.59688550655987
79.06675287367342
77.00798333917426
79.48825583210329
85.38777217209464
86.64889481051512
84.94245643988349
83.90000385405985
84.30628395633362
87.98535053516312
90.81112867764813
92.71815372515103
93.67693525931612
93.33790067589567
91.2658380622502
89.4244677661614
87.03955439874443
85.17181271962951
85.2442712794948
87.85029367429496
90.99220346705438
91.55256743428531
90.78619504119405
89.12656919148328
88.70039855906582
87.48666495385613
86.85549384926847
87.68217317701443
88.46953123458546
86.64520446241599
82.3668716146263
78.14304244391496
75.0032348685081
77.97980551886114
78.39850187043754
77.90227541438513
79.46072566304782
79.7612937535364
79.13311662508593
76.85108046241552
74.4400480849381
75.03687704716623
75.69541320034074
75.34967584587744
76.8360829306899
77.4628494959255
77.73815970976239
75.33756668137761
67.75658234072206
64.35283799883696
68.41595981761346
71.91609811619583
74.53502318133319
75.53423960943661
78.07058745187234
79.91877428373125
81.21703520833682
80.15842807980005
80.1200702884497
81.29174498034565
81.65960382651882
80.18029086287427
77.4126236577718
75.88743429933763
78.33864354130743
77.35753366093196
75.79774635634803
77.68485150059534
80.38322041906895
81.2753869263128
81.04905710502936
80.18159493011287
79.80680966100219
82.50648598741323
84.09130148466019
85.01675946543838
87.09004430604011
87.13069742453274
89.13507067105954
93.5608164062999
98.18662776093772
103.37613088391132
103.67737752745671
99.73246256650206
94.27936519686641
86.41878083548418
86.98903677840593
90.63584005665024
92.60861412737806
91.82620626486708
89.55016143807859
86.30932202411466
85.34375241468086
85.8539986561663
87.36252955773644
89.44415246279651
90.97722054287237
92.43283288382581
91.75220584672611
92.48765600497421
93.95631583451593
95.82459056631393
97.21475524824932
99.39500047020947
100.59357552479798
101.1459817505213
101.82527681127505
102.41273423231337
101.54483915792629
99.31123668531093
96.93976753329123
94.30430937976028
93.57167500603627
94.85416286362678
95.82128727766094
96.36275697354002
97.18634326436056
98.62175906591982
99.60249635498178
101.66117811604316
102.6016515396687
102.97273673253876
102.59073243895305
102.07588805474036
101.71368960618251
100.4982547138983
99.18211408472105
98.16368213521736
99.70271560910705
101.76857645722764
104.18858281129467
105.86358131726394
106.11421322147959
105.26809680792539
104.28466541544897
104.41443516172156
105.33395259990321
106.58520249999061
105.36134862343718
103.72512550549504
103.28216006424273
103.3970404411077
104.74292979638993
105.62539157029002
106.45060921772583
105.29862389368988
103.16891976045947
100.69362054498924
98.63960726503434
99.35082892587667
99.94482562527955
99.65213610898236
98.76289063185676
98.25205546485954
98.39675142848775
99.7520201273136
100.19604044395919
99.73404641186625
97.75243842984666
96.48726225574735
96.03076541621273
95.89794286684537
95.37573373889276
94.15004995897867
94.75974345515652
96.04896006072443
93.69404571140736
91.61879343753746
89.38891520697429
89.43092804594198
93.64777704608431
93.6693281610403
90.31349689363009
87.98543097501499
87.34192911391493
86.95029599347761
86.97826037159226
86.89749013163636
86.56215139765409
90.35549337829876
92.52025168415884
92.82008553407117
93.18808541310587
92.11300590352165
90.43090478984242
90.1450478307188
90.23270751287318
91.39026600113519
92.09282030292492
93.29413485606788
95.22842935822217
97.29388383947692
97.59919030413386
95.59168896976513
93.5525815027726
90.41508929113078
90.89743446026644
91.08317190667498
91.19160203236864
91.65651802391794
93.94124291839829
96.90404943000442
97.66409720549018
96.62248491297555
94.05257499783697
91.64972628591762
92.04161471583653
92.76777916857574
92.98943450129052
92.37885524911862
90.97403134069158
89.75208303853753
88.77814226992767
86.84962239635551
86.66551981251816
85.99276747184037
84.65158246952979
83.80029849076298
83.27134737393467
82.87100238953776
81.93948239133506
79.93753964270029
78.89637758561011
78.88864696741273
79.72234103393126
80.61912978197367
82.46392029122936
84.17620689243414
87.10951926056688
88.48100203498385
88.42500547873483
89.25121465619242
88.87922625647012
85.66155282947051
82.38945777049459
80.8193439804151
82.86522089363062
82.44049031523265
80.51852040152508
79.10275002239932
78.57951467294166
79.45747975259903
79.06395333779606
79.38267501047105
80.9087822053732
83.39369222603791
84.95381553174045
86.94257660545746
88.6676038151296
90.20260033807921
91.37800994149526
89.91588363381157
90.56973891723565
91.17057198114888
91.95134537570983
93.40929897045798
93.7927772478372
94.62330344681824
95.265171648766
95.51375990728269
94.44120490064846
92.95154466169541
92.93825668625314
93.61504283310911
93.80625639101669
92.35206122864007
91.35650957992213
91.10294330739781
91.72200810493516
91.7725804313731
91.25034369480927
91.81074317958486
94.91902535374123
97.24690499128012
97.95455808168747
97.1372463601204
96.971971849268
96.33355815124624
94.65344139881432
91.97731922493266
90.96679220906232
91.80631628054675
93.62211817339238
93.93263744188938
92.4838615837416
89.682026109909
89.11701843354945
90.63469914839365
91.72975978616228
91.70760816671167
92.50337734246665
92.63312865002591
93.98100534450796
93.53787835286352
92.83998142833143
93.89563177942803
94.33446974021905
96.374866115099
95.54311518069267
92.99418131206855
90.9759482313324
90.55226457671715
91.69598493202794
95.24350446617406
96.67460916303754
97.02404342708446
97.84762052197975
97.06262358936927
96.49922541690427
95.85953496382076
95.59461701863002
97.7025558032322
99.58619019800561
99.00292161583933
97.48904187176824
94.69173864519165
92.76918336593556
94.82118576275893
96.44536408444249
95.27909059992413
94.86303733863322
93.5950849848436
93.03349354432461
95.33018446237661
96.4515624086174
96.59154669479676
96.74431510726124
97.98362280655932
98.42618316434198
97.95958502589743
98.30486268304804
97.93224587452515
97.37612261639667
95.64970767720098
95.27880826947859
96.34938603213465
99.55887049365204
101.58439540079519
101.43603674265408
100.814004223182
101.88269017578752
101.92941239742717
101.12505354204127
99.57704574694475
99.00715528333974
100.36745309055537
101.54221850273062
101.20966738547483
99.36435253595062
98.30455948582953
99.77125818580059
99.26672846031363
95.12501039029492
92.31999581745443
88.94910207270586
88.66943548018153
90.41126355799427
92.39333772345684
93.31766670010252
94.23117369302985
95.73332786484379
94.20739303265691
91.33765963509984
89.50267745690543
90.10584345292672
92.41121010440914
94.4521659372794
93.39079309151897
90.26288738460242
86.44212375972573
85.18914012668826
87.40714787283315
87.72039139249665
88.18806677351517
88.22530289879825
88.36617150272622
89.67130067714787
92.13784182630468
93.78532328631768
95.2206025666609
95.25471110056081
94.69971542710056
92.98247433079023
89.63358389881463
86.53302337621376
84.73344658930382
84.56375411754675
84.90150305193211
84.75958607217275
85.27271073306676
85.93237378830001
85.88597104050748
83.31506624586982
82.3517655442659
82.50426859420665
82.81793882938275
81.74858004685241
78.24724039912086
78.81671474517034
83.12314736915803
84.75064852519223
84.4892462814309
82.00607591081356
81.89217934104215
83.94077196913256
83.7547027674087
80.51160730938525
77.95297314157327
77.93720082032615
81.23196285405064
82.56201330291694
81.07926823207119
79.49912394269339
79.55113665032181
82.58311913057032
84.39533431511946
82.32621752767179
79.25180756353524
75.43799857091689
75.47378473003243
78.95161551659832
78.81954440269239
77.34212738484462
77.62413881400495
80.16958011838946
83.78238927006969
84.52285281788582
83.6631392209581
82.42124255921017
83.2501914252778
85.24961367841614
89.05790134507572
92.58109759281466
95.8734101615611
98.89636927881021
100.23462939901849
101.5963986570375
100.21766458634758
95.77821146977817
90.25295459622502
86.29487601034741
88.25844984605419
87.79270029204164
86.69276237482846
84.95018860950367
85.45618763282882
89.07592463547309
90.87856258299804
89.97186459276723
88.49753264606062
87.49101524156823
88.17567228902791
89.02358996952097
89.13852065923425
91.11774977928734
93.6792373441088
95.70088845800457
95.26742080860565
90.15361246800168
83.05321875898959
81.02603309634901
83.27404186183487
86.43963958390306
87.49886955392206
87.25991215077441
88.36779988209322
89.68433623709396
90.15417213477284
88.34118885056151
87.96417340377079
90.83762342179192
92.0378073397941
92.448886032571
90.81917400547896
88.42306035682816
87.44015650810456
83.90249463044316
80.99052844592383
81.20742281375674
82.60736809676038
89.46005170879965
92.49653922759536
93.66966627119939
93.40152974816301
89.43694614503111
86.10543348540538
81.39009480715643
78.90302357848302
81.91538129162035
84.83813497309585
86.6541767933335
85.78663556971318
85.4979383204253
87.74335583969571
88.10781170290682
86.7231310166541
85.01764135615102
83.56561636487342
85.00701164725707
85.07976661054384
83.41183833269211
81.06222051560765
82.2499798918123
85.59782651850065
88.43453890962763
89.56772424490225
90.03801719702724
89.58400905943567
90.44067171412881
91.50532329767492
88.6312665998269
84.65397039108443
80.47558492046211
79.55556950969157
81.85040668290743
81.71135050430891
78.91068108112373
75.5303871581928
76.60825950634178
78.078007416071
79.00646531526289
80.46579695180644
81.59749584537622
83.98183919228157
85.13289574919034
85.01352072626717
85.253924684115
84.4348694764115
85.6362897053614
88.85618453519486
92.13124927795158
95.48576565813715
96.67445925350142
98.01762659401531
98.56974850578342
100.29334279175826
101.34435827200781
99.95987232260052
97.64236207484522
94.91650126423916
93.96874143838096
94.52807693024404
91.15095267826597
86.91611515391206
86.49454467315114
88.69925760838052
91.44558616201732
90.53349586640898
87.09683233993026
84.56439556295727
85.45916417977824
84.71547357990052
82.57659534051729
81.73579287585939
83.58249715624345
88.03613752628543
92.1719726855686
91.11560409963687
91.12408196610971
90.4360323716814
89.94260729406723
91.80550457281512
91.60384906397597
92.75549360658141
93.90110383695607
93.49653922313605
93.5245042195308
91.59087226325143
89.60152294790424
87.74106450593763
87.97697597794567
86.8157435796927
85.0178279453811
82.3094683701528
82.77695241345216
88.09121110285865
90.98088997154308
92.85559978475413
93.78019545478573
95.08718379045763
93.32934457761756
89.1251387250126
83.53446531863872
80.97317913770831
85.29382169271936
86.58631522784474
85.58827574792488
84.57863876285538
83.72967831439162
84.14698718001189
82.65018576380871
84.2056070730674
85.5519121635903
84.35018812608614
81.34601334315403
78.12978871658649
79.52459674243781
84.82645406561439
87.76171955321108
87.05397637060508
85.31908537297478
85.61458323972018
87.4835090916103
90.11819671704127
89.42481787285443
88.3442433309957
88.47008311051161
89.48847627660773
91.10606532931446
90.30514650002645
87.24780417727493
83.35784600193911
83.51154742768195
82.4413909066194
81.13718388727219
81.71168612844107
80.77582723596237
84.04166504359283
84.96656644252292
87.82855895107537
91.35921470742437
93.00283110755055
92.1946321489378
89.35128564238858
88.2461137162305
86.64257593291335
86.92903283719117
87.63242892618636
86.31539745930706
85.91444472735354
84.33553261419225
81.27339978403388
80.0429078963786
79.88768578092291
82.9322561788594
87.51360102895453
89.4782540759979
87.24725664639615
83.82951274345939
82.7440597168467
85.58378335207132
86.4348994287806
85.23759570363646
82.69322782528506
84.87828473080403
87.83299332262953
88.67374560692583
87.855382393607
87.31232924736797
85.56412012764504
85.5887358374627
84.59370034137174
84.85342808943487
87.90334828929781
89.2183510977572
88.57061826378957
88.21992551313186
87.07565073816836
85.58385038739434
84.6415659438771
85.08903207322484
88.26464449628531
90.12667285716418
86.99286331626575
82.78417754109196
79.27954085173538
81.71648227319284
86.78909783231485
86.46752159832987
82.94808454613802
81.66930438599967
82.75467127986128
85.38883213351828
85.19829603875806
83.88432398242068
85.3906272288216
87.74412453586696
85.97180020442516
80.43941266198925
73.64005197152632
77.59417716616498
84.43360765336179
88.43059447607654
86.57783243238508
82.3511113337499
80.92600323867451
81.60116090025701
84.42332298125146
85.55600810175193
85.30511222093551
84.3374139856996
83.62445442722817
84.83573573451463
85.60252919721532
88.47435085527891
90.67865188218897
91.14151942411912
92.43542445903189
92.8973497044133
94.30481271983594
94.11718868441066
90.3780749396558
86.91096115926668
85.42872715843697
87.9511919666656
88.90193305448425
87.66979264945651
84.27831989090397
84.06832405776797
87.79781500089175
87.61350926440055
88.45227145766289
88.05572954149997
88.00265188440356
87.94765433157792
85.22142323509024
84.61476052620519
85.04138006406033
86.93119855098594
88.19007672291333
87.43544622210896
85.20390299296095
82.26803255128382
80.57529279061477
80.50237513545804
81.67895969578127
84.56201977450752
84.9756202347878
84.63247496837288
85.33808015263213
84.65457225708279
85.41601750218834
85.93661462179233
86.90742711523042
88.24957781035862
86.81484811625073
84.97965427600761
83.12745213937733
84.10510689772978
85.52048356469109
85.73873068671972
84.81461600588297
82.26119207021168
85.07521986950387
85.62868925582399
83.8553496733752
82.47094661696524
80.02276015764332
77.56917952083643
76.25296524149505
73.06826643017519
71.69040426478107
74.04514283744444
78.70324696668142
80.04446165371411
77.3195109375524
78.52445806081928
81.59775274162992
85.93162358837036
87.76819800777201
84.32357758346251
79.71872866556974
75.53501724427547
76.20585168714629
81.15053765193281
81.82341128392076
80.68376353586405
79.97509405549488
79.54780972775754
83.64164029495694
85.90465281335301
87.33245623419633
88.44116608603775
89.2864568400209
89.92953646405846
90.27256971846023
89.54886217569184
89.52987205765481
89.52994514224855
89.08319405653577
89.68057989736543
89.64681066667741
90.3690530944838
92.14114800058306
93.37125491074738
91.85455434957852
89.74897535099906
88.61148397390701
89.04655366651468
90.2590336260149
89.3083214568161
89.23619501800853
89.42329622928251
92.3268655601993
92.49225720483194
92.58887059001371
93.3998168498232
92.71469282724037
91.73747144537887
90.37217196688847
89.328123497623
89.63562788764042
88.695149166044
84.48753129930945
82.93453725579263
84.756176351453
85.87176559141531
87.09321550966683
84.91136767296487
84.0211759262259
87.02814438161016
88.26858404486012
89.75392462220297
88.13880549160393
87.52390749531455
88.87463611732097
90.82404246441844
90.46958221848871
86.60057181656826
85.10098884564177
86.26856505119098
88.99208549987067
88.85024799776211
87.62160354715004
86.98774902136591
87.97127903609007
90.8759872876309
87.95700504867683
85.4075772202784
82.7606964166651
82.47915214659128
86.24799024288552
88.39284145771086
87.82173774949256
84.02722420870681
79.6564576821672
76.29898788704948
78.5252124682748
84.6715612088448
86.52312864627608
86.77974255177351
83.02977712128133
81.4795839572308
84.3630847390784
87.07569287139403
86.58551146548928
84.69520687127245
84.03324258830531
84.04852363780266
85.7506488977879
85.58627264227873
85.8545063816055
86.76693522539804
87.82035422595277
89.20180021779552
89.11355958915924
88.52743574573194
86.89024800382283
84.42584924420755
84.41652013535612
85.85690002037296
88.06558559394831
89.58815965007805
89.47597994885253
89.38551142332295
90.86240459383299
90.70538902568923
91.07166254541886
90.77084652474832
90.48723723753606
90.6746463032851
91.23712101744914
90.92935089085631
92.32751486412626
92.2586124542952
91.54676837318668
91.26200795177873
91.91797726598786
90.07873390707492
88.25220509726734
87.87461194127356
88.62952766430402
92.30873755221022
92.1346091205106
89.55432537323696
87.46239412728963
88.16507809940141
88.48855725528071
88.4222462209831
86.41014440084605
85.39910417821801
85.49114793770596
87.82385988333553
89.31910656424809
92.43461783472281
94.52368746154269
95.43329795342015
94.69682394702534
93.74472433458405
91.59428902702153
90.76933567209439
90.54090750290206
89.73461123757818
91.22590920164362
91.55953542227532
89.90059649130313
88.54564744784498
87.46422763112517
86.97032295950105
87.08008009224767
88.15925637604617
87.93447486235006
87.55431730005247
89.20665718563143
90.49011266831263
91.69635122272219
90.81826057692528
87.93089215011743
88.24455435320954
90.04395673216051
91.0276738853692
86.46266976763131
82.16197456469669
80.49195416033993
85.3124759667851
90.46598207495812
89.6385336332381
87.55232189232767
84.14208379392281
83.933916561508
84.80604648295966
85.57036009365407
85.67212192656604
87.0247702707864
89.34134377419225
90.22348153614944
90.18895179255475
88.2759770135661
88.42403650575083
89.55390375415567
88.78396660440285
86.3193976425559
83.86298699660655
82.46950216044407
85.85535349564802
87.91639293000074
86.32820211874005
84.37600176689274
82.94112564988541
85.39718295900366
88.41024804556208
89.6227789398971
89.97942220247165
87.56983558086601
87.77161798021427
86.83808785825549
85.03110187557387
85.68494135099503
87.59151299034284
87.79679906882743
87.37025169581662
85.1611944945113
84.67487228513718
87.55630810301628
89.48146589483805
89.93663409693478
87.2514565181404
86.73457374865107
87.24223438032718
89.63953207362962
92.37400286269676
93.38689957746304
91.91653233927184
89.08135176577754
86.16501376152836
83.8854472304948
84.49673376836671
87.43963240645647
87.72327137971402
85.79564055184635
84.20532228981202
85.65004437851738
87.04792905580614
85.44813903284283
80.73551417867156
78.22068331522972
82.09585680277534
86.64395432948203
86.57172851574035
86.58695485789559
86.4663847085962
89.36849792331994
90.45097598441954
90.58970981194987
91.3633380026801
92.49298505815558
90.63819586693208
87.54940757859802
84.18487200088093
84.34291014017417
87.31153971495087
90.91527940930804
90.84565877491177
90.10992441846616
90.56056813623348
91.68073140081283
93.79986729768702
95.63499082076437
96.21741336306421
95.87210022670389
94.63115665969826
94.09310932264411
96.40164801144556
98.55866126710218
97.5415743292432
94.23357551271316
90.22670052236997
89.42064735193627
92.96654081627149
95.59346060606707
93.92917156231829
91.45852483094167
90.55563301447692
91.68669887768628
94.93472288169023
91.04977511104033
87.66546001793661
87.34510302612414
84.08669604772209
83.71550240575965
83.19129186162544
80.29955452630331
83.5782714159966
85.67798851806018
83.44184471280728
81.34951283803393
81.01821199063063
79.61378894371234
78.13791715709769
77.00166743958147
77.5045591931901
78.89186636692486
79.62661865684312
76.64836427600832
73.44055366941217
73.13022750357223
78.70870391869113
81.11968991389378
80.7898780956862
81.75258889146029
82.29717301713093
84.71107423695983
86.94282459536203
87.12628260249679
86.61271847271671
86.47375706816776
87.66204281315375
87.27773668639207
88.42535197846873
89.64377761433985
89.55934450638568
90.13584805276963
88.67046431132893
88.06133534649528
86.58540744978907
85.53362529163944
85.22726085876755
82.77072229892079
81.35554960843285
80.14726798818671
79.9472005884407
82.67537394579308
83.3095299879523
83.03363492138493
80.03423686202666
79.2090723228156
79.69248342834612
81.67237027323607
83.48030573541389
81.20684198889307
81.09130657053086
81.94475806145958
83.85471011864648
85.84654964709553
85.94012595756215
82.98174994648639
82.87346086339555
83.24218525599454
83.91201977621937
85.8072985751179
82.87073452593604
79.07739200416783
77.17470341380759
77.32984688346018
82.59931622381188
87.75608228103658
85.96453093923404
83.65962998547054
81.79091253015129
81.26220593714788
85.8966279284066
83.62783294788686
82.78821038240423
81.3769660951975
84.03019724007655
87.43735846530265
88.27705219056365
88.26254118431581
87.08094993343207
89.05511862006772
89.15460079754801
87.79340297533716
84.7183245288306
81.5840398440601
83.77601481572944
84.74908981256475
85.5726887853137
81.86400771183341
77.79167359745264
77.60035487237812
79.41237956227187
80.22149012141463
80.70821399777181
81.39903325281503
84.74804933164047
88.65385119844804
92.38174251755254
93.28760567954019
91.91699934288175
91.33220492935793
90.4643880390751
87.88707749863272
86.20413148697835
84.2802684484758
85.84267657930167
87.61839031659314
86.99567329914137
84.37488510889769
82.32079899577647
83.06792267618496
81.5005039729813
80.04612342365502
78.54516235954839
80.28978817565104
83.00586049058258
84.60555480849598
85.69658254598265
88.67187096723441
90.11793420496402
90.03218902355549
88.63787536963069
86.68966468148757
85.07324951138538
84.65325191124228
83.04060637028802
82.07618679784916
81.53782460526352
81.31308777088395
80.35697042589271
78.86616716506968
77.71469168760451
77.94186630444118
79.17953737342471
78.2179623502299
79.44584420177577
80.37621619545504
81.54868574424128
86.31669241298043
88.2698142192308
91.56014990572307
92.05308499635355
89.24322598279842
86.34691841629203
82.18011688947931
81.69210538272203
85.18105667265934
85.00605955652294
85.01728300319844
82.39602864465114
79.2228335498648
81.37126227597406
82.4509588664993
82.89973991876256
81.33011863236771
80.76432229737028
82.39079252364482
85.72783724805916
84.84372945635681
83.73796645161346
80.06757083920247
79.18575428061781
80.48648358659062
78.3388116111997
79.92473558510427
80.59817095880004
80.08490124632644
79.22073032174336
77.58006721286003
77.46126935200395
80.06876052493918
80.92872553920928
82.23083100364347
83.02977405399109
85.33685389939563
88.2599710495082
88.2563484813035
88.84562926088529
88.91506965797184
90.1303751925495
90.59682270552959
89.71798263363586
89.7600423173707
91.00243860612078
90.92608860665416
89.63654037626023
89.4697805114952
90.1632031228316
93.1711063337427
85.10993528631693
77.98009325730608
70.52308064552834
73.69141525804314
81.09734487447106
83.96307525705495
85.92994834652796
86.35860155297445
87.38663244896765
87.99699814179145
89.62592987549549
88.8832504375358
88.08820407359897
87.0524249548561
88.31720806091238
91.21044723024282
93.12106878892472
93.31854893715995
90.08546936893924
88.68227431916362
84.43641849864666
83.5986073538507
85.39482900956057
85.20397417785139
82.80543867015228
79.15252387086383
77.21038033333791
82.1100997971868
85.01968496451948
83.73168102103384
80.11582947456216
78.20736884918752
81.76923946337313
84.72305461667679
85.17115577240818
83.84976516262077
82.6520961580168
85.59897821420563
86.20220636915205
84.7795729349018
83.11523786458133
82.12974568386656
86.65111298377239
91.17647837769948
96.4814968653714
99.64581260051797
102.18844348871471
104.2537084414605
105.80314233488645
107.22187208606114
108.2198419541446
105.80349102737793
100.79274855698067
96.66921812235148
93.62372084835025
95.11705671701914
98.36235869979025
100.61185111735921
99.76997927520107
97.3149060417532
94.4162240189565
92.68749695931182
95.00871169764572
98.03650343420918
99.92743360114703
99.89668580296593
99.71029841431526
99.76261937141139
99.73833219415987
100.67949040608522
101.98530944928278
100.5556694250145
98.95466978039065
97.6798136425515
98.54646099090915
97.60476014260956
96.22141608479467
92.41797923121295
90.66978253991097
90.28340901909242
89.4082638276084
90.78791944105278
92.93334348753797
95.78434030919796
96.13124352192425
93.02035925655368
91.89067868627048
92.34277208753684
96.15437039501984
98.54036650158713
96.88806114556392
95.90585645889637
95.61243080883695
97.27840410734886
100.70262979111493
103.889978807593
108.10092772871633
112.63152761376762
114.9846318997067
115.44789594917913
113.35752499481582
112.35222023358047
112.59989600887289
113.3884168023928
114.88391593202289
115.27426130540775
116.13993886649796
117.75870452197572
119.12419094695203
120.55374104241996
121.55974125064108
121.6283830497311
121.12387287586535
119.79748439384754
118.97285081639133
118.60682189769157
118.8586947574374
118.19305700408354
117.31817351327507
116.05818144705745
112.4178857367895
108.80145194806356
105.39477657996713
104.95979716415965
106.73525685158766
107.99718282267891
106.37120479611409
103.33580783990516
100.59186110429155
99.68575840366684
101.27575496016851
102.27075813607063
99.47155799775476
97.45101970632072
94.9807917027631
93.57689859117744
93.41871312767003
92.81797971111372
94.13367824180428
92.5052540520801
93.82675568621475
93.91708582992736
94.11241144031258
96.3778828567698
98.3509341234974
98.77841895018493
97.51420701439419
96.81227778961352
96.64889618444614
96.98943146504206
96.93641983234399
96.70966693124412
97.6516264596209
99.82127019628865
97.91088116603076
94.28309396272049
91.73182853578862
88.83340219898433
92.82636992164853
94.9027076279994
95.24461787431396
97.32586495388013
95.66773565572309
93.907708728115
93.38821000402918
92.40653095052521
92.26369545716895
92.4271309263699
91.84859937460334
90.85676120535354
91.9952718623852
92.35474840454971
92.00274780054377
91.59200129074753
91.50967558756749
91.81005667643059
91.39303342882585
91.20043648875725
89.32336390947911
89.63525064655954
92.02367575468574
92.73705343709555
93.3407562856821
93.91500501513133
93.11610617601032
93.18849179487887
93.4281261635354
93.76075865891913
94.51216548242412
94.2486941411932
93.85250279499412
93.88671720200385
94.99717267135743
93.91797241833034
92.72612460819755
92.56282071164524
93.27288120092749
93.62691370049951
92.962208476868
92.32923108762314
92.72137058174441
92.76404881833567
92.78789079213534
92.92512909067072
93.94704484582594
93.82867905638706
94.21074239628403
94.70588492757496
95.17155181679163
96.33831315841803
94.40968342618308
93.47712039224051
94.47508192304387
95.1553527909589
95.9297705927148
95.58396816998238
96.07968723715247
97.91110255621787
98.59773464272185
98.64673153299657
98.60688589213726
99.26433761142441
99.90548751142605
100.72209103341336
101.21905562907212
102.06585667287287
103.13045659445197
103.56759501026045
103.51384409363558
102.23503890096072
100.87424487746532
100.34465569970904
98.53340787363858
95.81476113092072
93.0626896182325
92.27986170089743
95.27430476755386
96.49180169929555
95.3609221942556
93.57818985828413
92.43034786994036
93.62924285905838
94.59222399928404
95.06072961557736
95.13589377527188
95.94520226375073
97.3429402691549
98.4349607405386
99.6807146520294
99.2381546827152
98.12121812752264
98.36218501729223
98.44392134780196
99.06900966531315
98.00957839260381
95.52326296553237
94.04144909657721
95.62791962622907
97.5371318459262
99.17301519073222
100.08845220248968
99.30119819649552
99.17349696572643
100.14169770431488
99.2660956707909
97.60436121438586
97.69455506613303
97.45729825130724
97.86508828160176
98.18749017563208
97.7007143348245
98.62735538650362
100.0180164621425
99.61779013539588
98.40229044626709
99.00462036399908
98.00807699162377
97.6799899129099
97.13575417126822
94.14558721020228
93.94912430990325
95.68583139470165
97.84374963990467
100.388490150214
100.02173103106236
98.3406775937977
96.74710009952996
96.00459296753247
97.2053804796297
96.46228506940992
95.76505256844894
94.5142993884453
95.4880421770798
96.77227014640967
98.58820032760616
98.94679216939471
99.37814109550423
99.9250287231824
100.78773238409373
100.5232651256602
99.71184439920883
98.37366371534522
97.0675171943103
96.77381347837144
97.11469023962775
98.19929568168868
98.42954633157335
98.66540974873726
96.7932446296151
94.0583189078512
93.46880485175915
93.96399178517227
95.66773824539295
96.74362921999865
96.08009972480261
94.43855362814189
93.80082367045516
94.45722357542881
95.48745227975883
97.50621329580746
99.48426975478645
100.74985138215351
100.00811178785038
98.43699202318332
95.93738931041601
96.4802325576966
96.96526681772174
97.32382588828501
97.25513834856316
96.3216489676484
98.1653069766633
102.14150508608006
105.64357166248898
106.89513564310985
105.17904098350505
102.7504177462165
102.23374115434892
101.66991928650329
101.1065468683791
98.98313845865813
96.78860762396091
96.85898084507821
98.14705590542853
98.72786422560334
98.54437187584925
98.16458909451896
97.47892631095245
97.35520939221577
97.05803696666551
95.43332735254708
94.74287081246275
95.53523026386598
96.94337890589368
98.10448484879895
98.58802421833941
98.23782620198226
98.42334434989876
99.57129880179455
101.94601435127281
103.54238021730211
104.42218565327116
103.69849019366261
102.31811172172739
101.84993894545903
102.28256431396231
104.07939923109315
103.87457705550372
103.09567266243516
103.47200297035498
103.68734746713109
105.34866835985191
105.20997869984652
104.24359183368104
103.33035721889442
102.77022651065738
102.89973965638909
101.75980346966064
100.59706141771017
99.67079740225707
100.16411811434664
100.59280300506668
101.3552777135932
102.63128850865571
102.11791497287375
100.52679430270965
98.02831733772445
95.1414298694534
94.5130996031154
94.51552648331803
95.1239290254391
95.54002269504313
96.53884577267401
96.60830416699856
96.77282041063009
97.62279260447575
98.12417623710917
98.6612908236692
99.28725643806736
99.14736679806462
99.40291244361403
100.12263643369758
101.02207329056331
103.86681571707051
104.36012358684418
102.52940585143322
101.5845022834584
99.85682723270429
100.16557888126879
100.1868157520088
99.25577532842392
99.6081353695625
100.39276113815981
100.15393096483665
99.58244447262035
98.82984140420673
97.82150913150237
97.99523386651514
99.17232549576164
99.96564108049823
99.41624003799
99.00722702334399
99.55789940704949
101.79443911627828
102.07720984245536
100.79951196765583
97.78212112832999
94.98894189800694
93.9069932535542
93.73718046571885
92.10473076595372
90.67991084206801
91.71657273648862
94.66391981275922
97.23423692982374
99.14410770175927
100.00901429227969
100.68927555578539
101.45272093242151
101.93601875597989
101.80765364281838
102.46168302951482
103.11239722829608
103.45845605143344
103.81466847934088
104.08637197150894
104.30429870240745
103.10851689091187
102.17250183832455
102.1017469585429
103.0107468592334
103.95622272040033
103.71253512284109
103.32210232757218
102.89904075902594
102.59862772400568
101.17936743422973
99.94238448919766
100.42439380692409
101.84905984931491
104.41046452917493
104.56110269682227
103.27226674378386
101.22139050421916
99.09887109042891
98.69019857179792
98.17071264830406
99.57709073480146
101.15301742128509
101.1189142762567
100.9078854409284
100.75912206579652
100.70039713890803
100.32021895317241
99.94539487938248
97.82559837058655
95.74012935605498
95.64154595164983
94.57591314414043
90.63002591508845
87.85393387902155
84.84236674446996
84.59066328452568
85.46586127642506
85.83400600714053
87.36236126199765
89.69852612876997
90.91248465428662
89.08690248322605
85.73582314144005
81.71312220499478
81.43376605062707
83.94620846115808
85.19025999486233
84.89991901932706
82.45425523538985
79.34413153302361
76.98862027588855
78.13647321859217
78.9027619700005
79.80586782362957
79.89917555106376
80.1861023781392
81.81685377835232
81.00167404981156
79.34646111701835
80.56083236649674
81.87012000165703
82.11798073235738
81.74868076415858
79.89450863054472
80.32492383810256
81.31083021627808
80.7947378852962
79.77307984960534
79.33683620669261
81.65589460723676
83.26968280263523
84.78777204816264
83.73805140707682
83.88707171385201
83.68600482701089
81.95987255482954
82.54553643184524
83.39457704979134
82.50077672253876
83.6290865757772
84.7177080287546
84.04410338468449
83.81887676186992
83.49387785010681
84.90443972664175
86.203808645591
84.35286671239582
81.47404655237627
78.24202791209963
77.7503884442235
79.4107068680912
80.1801244905853
80.17555997334618
81.27047715764598
84.50185740984236
87.60299221181286
85.63156175101716
84.50767070537398
83.23417873155482
84.81932117281423
90.22433648553867
93.01226652444656
94.12758892755865
93.27204099833979
90.7509047368949
88.73279086033924
88.46188900043946
90.31812616828186
90.21467287158117
87.7511812914233
86.8073425049682
84.25444154691118
84.62208417649275
84.895132486383
83.56370547618036
82.96309135908628
81.8897141367825
80.65269717137868
79.64322933179105
80.9618083629052
82.54961397589508
81.95686337911715
83.60784839055569
84.96548809407429
86.3867729879679
86.22608316416266
83.71788020929588
82.40660910600295
81.97509842971807
82.90478685175302
82.44493726144704
81.10043938627639
82.44497216358681
83.9783371472862
85.78939048570021
87.62446550414728
85.25060153266696
84.45473137612626
82.28293688822956
83.79248916049646
85.137759015
84.98255728971233
84.77984553334211
83.67359009797067
84.04029572575541
84.2410222899496
84.70599397221561
84.4062380971717
84.3707951248866
84.33232651641741
84.97494132357187
86.2805356848384
86.52067550140342
87.18973839814392
89.52600275596045
89.4186797090581
87.29997796921765
85.36895793689294
84.86533373957663
87.71853979133125
90.98657668033444
92.02035469559792
90.49023259462689
89.94245270657754
90.87143255652057
92.68519506781928
93.80752630311041
88.1535536597432
83.69644466762097
80.8142114917907
81.09104376965614
84.04389961615814
82.0556926377635
78.86743589039284
77.73622399178842
79.71258794227002
80.86684430370164
80.1327988405227
79.23889423032308
79.32458763002361
78.26196494454818
78.14401619358867
78.05475483498155
80.64791877167501
80.62126672724744
80.92103212598212
81.45500540643398
83.5520472431036
84.24048510451823
82.55696667129921
81.56283040235473
81.11697581424984
83.8642981362013
82.59811215679375
81.69135062876117
83.801028734592
87.44044634840914
89.38261492788041
87.15334538937152
84.85491194312061
84.64707261715516
82.31803660430307
81.72133072836577
78.9921366560293
78.04205090717353
79.30193895654394
80.78001018268158
80.76793911135584
80.19494709063507
80.93600020532764
82.3619205199748
82.7834799993569
83.28407193728466
83.64332852601494
85.00641997166575
89.49231874883777
91.88511561415017
90.65566702529372
88.09948311444255
84.97349562051964
82.74356041775246
82.71711890443034
80.01442971221013
79.72477039228258
80.74967129783177
81.07897091442999
82.0031163386852
80.66111145393396
81.48643235496962
83.79975255204604
86.13283752247212
89.60089848102884
89.33172715903707
89.33040917024017
88.40988874795222
88.28949853195259
90.43029817161265
92.29260560762248
90.68058115164196
87.78223534696144
86.23580844702639
85.09643283062319
85.93943575445297
84.98463905091924
84.63629362676681
83.47576360078321
82.26381385238514
80.79536156009469
79.17213661520873
79.58651848828754
82.3179937543402
84.09082742839783
84.95476390891544
84.31054003769472
82.3221394066705
80.16579424488579
79.93541274131137
80.8146026050617
83.03158858210068
82.45506293053418
81.39666729129642
80.21596757106559
79.7366913543772
79.85053017761814
80.37131960210726
80.85183234127649
80.4519411152226
80.60150278776284
81.84261913751885
80.60943652243897
80.34408878587232
78.51754775095297
77.1230370560528
78.62561261841446
79.85889715999397
81.99961749302035
82.56598778968974
84.25014093881512
86.12796040036032
85.82506566520054
85.2918366707406
84.38885666393767
84.53704719084925
84.65635194478995
85.84557896155265
86.1346585207618
85.35003244720153
86.20161446699939
85.28860742482867
84.54764213813294
82.54277336441103
80.40898505465782
79.89036648709406
80.96880628571002
80.11443097273681
79.91919912616429
78.80771177821616
79.14616205359481
81.81498548596255
81.44027518837429
80.62834932893216
77.02508442617716
74.42152081623884
75.56781848776022
76.48490576391566
77.58517216900442
76.61430204116877
74.47813936059997
75.8327274799553
78.52889747927894
80.53742070993775
80.19650774129515
79.17105659266403
78.4426983105156
79.4177928711793
80.22701846865712
79.86792402709622
78.03665460092094
76.16560383376128
75.33575847136825
75.60999487316674
76.6510499599382
76.51394669945086
76.43999111970537
76.81625023153592
76.08786899277088
76.47798495586295
77.45561053075897
78.75322911624235
82.52561873403714
87.12821687101649
91.24803961201134
90.80138795477745
88.71988578833376
85.05825355627462
82.52259218214411
81.86813538352791
81.20820133009657
79.25033331357864
78.29215000826275
77.09348058119423
77.23150882729269
77.17772192940811
78.28747769728324
78.8391649217065
76.92324425458852
76.14605001884267
76.20879824534858
79.52189903587632
85.70073432468493
87.25813974585635
86.06819078949145
83.18539902931201
80.27003572027448
79.73646697857654
80.72580765397734
78.58178978399906
78.3109012435004
77.14738874160165
76.54206594215286
76.79628722805589
76.38460468849009
77.15349217666086
76.12103896316411
73.95128300282494
73.48151401247753
75.90475630257454
79.32974628556128
80.8665892448044
80.1859207012403
80.02104843544197
77.77157993226871
77.68424142859894
77.17450309962305
76.8466180838762
77.0485544784707
77.4295572010095
77.52584884623765
76.07286023159189
75.16953083181023
75.14277139302685
75.61719328975147
76.42921249609525
77.1736342814194
77.86239987929665
78.86121899928445
79.36455415049645
78.66653052276585
79.2621821194219
81.29438025491544
84.12171806986387
86.62576332652795
87.64161193569448
86.6490804100265
87.17868683363322
88.82897594312368
88.51945449901831
89.36407020403641
89.5051362021973
87.8603981964733
87.20544634297676
85.20624861910022
83.7999106168858
82.91618769110553
83.10834406762402
85.28503308049869
87.07857098551578
86.68332887909416
85.47342448502158
82.00202421776189
79.528352312647
80.07302125179724
79.88103418055323
80.70409144271358
82.38167281609415
81.4701438155677
81.31989956007945
80.27594647051572
80.51102650866623
81.2037108977788
80.60187652901635
78.51039025312205
77.45156669730106
76.14409429768446
77.13058316998945
78.53259558646606
80.55363562093927
79.56768389041387
78.85187672799614
77.96271627766592
75.69297375765748
79.09321140140693
80.43823297669505
81.49593511509242
80.67135943776667
80.11661557948439
79.22940211141594
79.9120731418095
80.26785763410089
80.33259904053426
80.98636637509438
81.35320856756496
80.9226362857143
79.83778347620222
79.8912525100616
81.18273638239278
81.74834021109561
80.32439549982568
78.40513575931067
78.80701384910438
79.32633501306496
80.26030174318555
79.23848869224246
77.14834013538373
77.18656121261543
77.7877773539428
78.37539870430003
77.99542383098135
76.72253805211115
78.02353393395418
79.33445299197409
79.80534157715428
79.39566035893756
79.28950955606493
82.60135463058808
85.53843789938207
87.05402097459591
86.92052751194325
86.0463956510749
86.7528692808722
87.96614803161907
88.46662213136105
87.18562886251529
85.98996450964887
85.5385780895415
87.55896779073119
90.95748401959158
93.42784395852651
92.72627248438106
89.09243554719714
84.94886108065803
83.61090238196073
83.68510810504056
84.23970564740343
79.90429007329617
78.05364300754789
77.16342765957452
78.4093300215586
78.38020773483989
75.18777890875074
73.76159809004359
74.78707454440412
75.02017987216178
75.7439007265918
76.48960260597147
78.57112122238226
79.6113216897206
82.38041747028882
83.81079943099577
81.27917144406442
79.37262050398827
76.19188586633052
77.97972599012608
81.38709008268525
80.77767400058299
78.43143775742595
75.98656320115668
75.958982249069
77.35063757851293
77.99819592995446
78.97288243658306
78.00499600288907
80.2613585882512
79.9301101799137
78.85278354199771
77.62159783188888
76.23492668349877
77.76172041516502
79.56324634173052
79.15460342240605
79.15631930871332
78.25662423272962
77.6173798074441
78.0680822082089
77.80475921066412
77.72678778085397
78.32612742568342
78.73578043170265
79.08676806989405
79.34945444290784
79.90489266711114
80.86692998174715
82.2256694544043
81.08365310409786
80.45821971749763
79.47845558929176
81.43915732473404
83.01989348430804
83.84065746536368
85.22909224613353
87.58645513642152
88.73053115861654
89.32318125024628
87.90694509519636
85.92273267199006
83.56297628604608
80.2004774753656
78.18376463289118
77.78462017688238
77.5549668531469
76.99016192481012
76.38001596005098
75.73549455386845
78.16801631374545
81.77534309364229
83.84320866659084
83.41657640024751
81.73702685797089
79.14982588028764
76.76551819305573
76.5081984108428
77.44570309778172
79.88756811072986
81.9168560094528
80.24989635979814
79.2643266324613
79.49732951100053
79.60570307354394
80.78933547778904
77.14676297399933
72.33010878786932
71.68009615210931
73.93632308534433
74.20511501559051
74.05006103457592
74.8292926268614
76.27577028679838
79.11170794781575
82.20729018301898
84.6193866909815
88.90766416693293
89.27360980699049
87.75792552650215
86.51282599893747
83.0776172250066
82.32010027041696
79.12972375078917
76.43907018330448
76.93235414334497
76.61258475960418
76.36977522421122
77.4120465368926
77.27973173690225
79.77072442443495
80.20475919007421
78.80403047127787
79.75370460606541
80.13390700987124
80.16378922930299
80.78515234577819
81.08638855351755
83.48115458119499
87.02786279047558
88.25360066221239
82.71374262460908
76.6619728818601
67.79882064088876
69.99745691854946
74.54612277599878
79.87697015544171
83.94011561496723
83.41488238575417
81.93287079018442
77.12350474552932
73.99660366706689
78.41892304882721
78.62621910821613
80.24766641249556
78.11797035152833
75.59296530228062
80.17963568290355
80.67061980498185
82.3524991602138
82.85776634185929
81.39476524539856
81.346711547543
80.64256466427284
82.37136768217547
85.5795559145424
83.06094897788239
81.03446305515297
78.71956068393067
79.76585779763346
82.05932403141279
82.9331531309275
82.55190281787739
83.84368271889728
87.18277998675279
90.71580291894318
91.35208698408577
90.94313569811293
87.131490643632
84.6477126718601
80.85027959889217
77.08043260911472
79.1438327669431
81.90885440393538
85.82880359352384
86.37229833436294
87.515570630222
90.96932767864388
97.72548817849066
103.82986908701399
107.64123730793844
109.7888302439223
110.2282148969545
109.2345769241578
107.36448760682728
105.52314771477138
104.4424129268443
104.6212987274343
104.60351417878161
104.09323022123272
103.21928414000628
101.91015777337108
100.7782602248714
100.80360239722576
101.48698679629022
102.71018583554356
103.45474546647718
103.7306424462932
103.67594376451896
102.92062111353312
101.9059721298468
101.06165949257054
100.61058846637258
99.29685985441797
98.21714207165161
95.87316940720892
93.11806664738009
89.60189471057325
86.01403092318093
84.26596582616756
84.45361344999102
85.13270230422347
85.50469926703076
86.16718253040587
89.64238077512736
91.55723478680677
93.54657879244137
95.19525763061232
93.1394084832695
89.67602976204796
84.18154767021058
78.78630671919244
75.43512640714984
75.69319766298051
74.72121769635744
73.30088695345243
74.59411284395156
73.8782274890459
70.81974477722758
68.9346850556563
64.69822647950029
68.53060858250544
72.9302290329779
71.83391018730426
69.58017517522163
66.61200366039175
73.0091598092277
75.40731435325755
74.83414155582503
69.25328246596183
64.10557537443047
67.85910163343608
73.24375698250873
77.34481964443285
78.82984797042758
77.7391685316376
77.03521437091155
75.30934518776989
73.47204248363795
71.20917832193666
69.87696634464542
69.43893735961235
70.28631410107819
73.33776625978801
77.92277180382298
79.95619156140933
78.49440760230351
72.61965816103506
67.7965186178481
69.23131935534946
73.10933687975752
78.11372494679132
82.98479692877487
83.33176115792325
80.71816968932136
73.4474527580283
66.52233319885792
67.33822305326422
72.90146274580991
81.1104521791774
84.99659437267766
82.50142814888132
77.78938505769639
70.10742550326134
67.00943138635517
72.80448537842187
80.04425076678487
84.90211108680344
85.02958120470771
80.33650186715919
71.0101571152288
68.18465936956099
75.27908448293638
79.29285611013407
80.55813044487718
78.68371528383834
74.12820208383017
78.00668548898611
81.98123837211756
82.82216210766482
84.95987991268659
86.7557686527121
92.17573660960852
98.4909723520966
103.48183735876172
105.12782112374856
102.24195392377277
94.80325405685437
86.07342284617621
83.09238972034984
84.5772274629184
88.22143842958695
