96.0906143466522
101.29797045926367
108.86289183415866
116.67363226572238
121.90548410819355
126.84771250814677
128.48288247334892
127.30418582088578
124.90131502563281
120.58665095505994
117.99735401851103
116.45701157943725
115.83011306813582
116.7065201973168
116.85074650816121
117.31968287408607
119.01183813575719
120.6225990424188
122.72564479820062
123.12596416321117
122.32410292981322
121.27854514972972
120.2008183934681
121.49774435884412
120.69986716733041
119.7407012050139
118.11709622643873
114.05525532108307
114.19025421683008
112.8577067468194
111.94114200980171
109.63942550461638
106.84922216821634
110.06474874984818
116.03654528062515
118.90799242115362
120.66694186288412
120.59764540944136
119.13725343482426
119.55669620468156
119.94630875998367
117.6724570392159
114.29188870259941
111.42829556746126
108.17356642714084
106.33419995438292
107.52143731141952
108.85977141552853
106.80319364870977
104.63874959852996
100.69504659479263
95.2506250889106
94.03199360685271
93.25573946757207
90.78716688470008
89.68516543655642
89.70707854045855
93.12510107467256
94.32660507842803
93.69456414340375
91.07729679566116
86.57399388173376
86.11952223484592
84.70631030532289
84.54206753160005
84.61238268636555
85.10219418542071
86.56879531743658
87.02009750937376
85.90470886237568
85.52024654992145
86.2401014948774
85.9590628853057
86.38246941744383
86.11742366777754
85.18447616663391
84.68308879095575
83.86451191556029
84.02599040819648
83.62599574984641
83.39353689294119
82.46631834030379
82.67386801787919
83.30231033516553
84.13123054276616
88.02975650100016
90.84488076540441
93.01684920380268
92.42392571136463
91.35183487010164
90.30410219041806
88.22994344367316
88.28071667235015
87.06111235699316
90.52349327166522
93.48751019329175
94.05500307955059
95.85732548833782
93.94843072042653
91.99466758527446
90.68477756021248
88.58347668012276
86.9914073557224
88.03246999702368
88.69058756094353
87.63982135990028
86.5912838073675
86.5202584458226
87.02233080084174
87.97171574538496
87.66164172325716
87.12448901859652
86.77522257372638
86.34978416699407
86.2817171335631
85.22395637447134
85.27882904388387
87.60817217012256
88.5864892103731
88.69583904303191
88.55159171391607
87.41485557913077
87.19028589918699
87.56102034397719
88.30075483328005
89.47397914266877
92.47855808423296
93.44255537992267
94.21052182369908
93.89274540237813
93.27448479637583
92.6483678159118
95.34378831420575
98.51238237616678
100.61403025480381
101.44595608462048
101.10101693062468
101.3612374991835
99.59932135878631
98.5384588077787
96.97783411335932
94.33907396498506
94.4659452250247
94.06202339659065
93.55581727376085
93.78033895655197
93.72491549609539
95.45553110418331
97.07443797828911
97.89660584316785
97.7984273206249
97.75044168177264
97.33029381516697
97.26028458128889
96.76175287931899
95.33526608443613
95.24525282114365
96.09654446055445
95.62808388821537
95.25355023000837
95.00153868356719
93.61283911177902
92.7362261970627
92.26587689169538
92.63580883945691
93.13618911964237
92.69409882624261
91.92581288749817
90.94409290682216
90.61367590973076
91.64092208243723
91.75868949824888
94.10222051016086
99.45456746093386
100.90223983049232
101.06491761561033
98.05651398918236
93.64832784775655
92.84665066295673
91.78082652282289
90.97637177726396
91.51291404055148
91.32527817632412
92.46285513174013
92.3659998363542
90.5739686269084
89.93838525457554
88.57684220957019
87.90337722876458
87.85840360605678
88.7460002598556
88.6480923419409
89.11052844500425
88.64689906234945
87.62432952812748
87.2573184883784
87.09181162403662
88.55449840570856
91.28971028827864
92.86861668758542
94.53443349345626
94.97298182023358
94.61535518436386
96.39530529176695
99.01640378223193
100.57834835986337
100.81833087222874
98.86942986094157
97.15804441910898
96.0450762727158
95.41831764214179
95.87131750769773
94.56325671566825
92.36958401364618
92.15558934489795
90.03243352557432
90.52020368596787
90.95256620917151
91.19312434006021
91.61176504910088
92.66525199309949
93.17860034891544
94.43225473938014
95.79842412806865
95.26389300840432
94.35153712029755
93.35103050870231
92.81586125751339
91.99498017846525
91.73569457058743
91.33272142150025
90.36380236622355
90.31460629783842
89.53651107301219
89.02523290518913
89.69764132962128
90.82177753805747
92.9555000016207
95.10187706550788
96.66381939823015
96.59833124504758
96.93969693489203
96.84104419733346
97.41642189258904
98.00817569150713
96.71157057530722
95.41907271127968
94.25151046508516
92.82966248884371
92.1358375991179
90.10063848920483
88.23875831092163
87.35674212294403
86.97728749479982
88.37124578299687
89.26813468690287
88.89022367186469
89.48044194082382
90.11839310602312
91.80847759438376
93.17077175562649
93.1001157500366
92.30756826808926
91.8219555932127
91.72853168893171
91.91350388411425
92.20899861379677
91.31055269925642
90.97358062654921
92.22095023136387
93.05047340527356
93.16924924852839
92.03460260025896
90.9635046179875
92.1682616717156
96.58001642548288
96.08246303241214
93.93842433560408
89.8005648486136
86.37780318010503
87.21958810323657
88.41106927505702
88.53081095457074
88.57939695885243
87.4787791582975
87.63721533322402
88.13522614948786
87.77056997063029
87.78094700517171
88.01697772569624
88.10002904620325
88.57328205210146
88.29352606940074
88.23752965351903
88.783305551661
90.68221459822063
94.91232457400713
96.79089180792913
98.01357031706027
96.44793927605106
95.58421143825052
96.58393607052938
96.59582902660496
96.63638792719115
95.19915559639476
94.33876212276583
95.07079276885474
94.72304417664725
94.83053446131049
94.78333270603588
93.37892206397525
92.94773373113809
92.76868710182015
92.67933423158088
93.51492777648441
95.21106576171877
95.800100021834
96.10504984669255
95.73830934614375
94.99328250661806
95.49696401868414
96.12091435661067
97.12398350779607
98.23956804206118
99.39518165783134
100.14413027454685
99.17349271655384
98.22701831001946
96.68655421548213
96.13937936444091
97.45579446515785
96.45683364862172
96.26103990072768
95.8913907592039
94.4232982989169
96.07052696546178
98.12694104175749
96.44281944061346
97.06398395696118
95.00968607972067
94.48391304657633
95.67625703449067
94.9402420593513
95.6186540762222
96.84679296975825
99.2787294552715
101.32312896249894
103.04471731968643
105.82496512199941
110.03160298753298
114.0104832271064
115.4273268932798
116.40127740101349
115.783250252172
115.89835089405373
118.00582038506376
120.12012486164564
121.65585000241511
121.31258744528108
119.28428739410994
116.19584829390512
114.18334567800359
114.00649512939017
115.38914186700318
117.68067198510131
120.10935409049394
122.73511651238316
123.55154624054904
123.06078215747696
121.55607203545827
119.69114566981489
118.19269901635826
118.81509041872077
119.91921469489002
120.9898125296288
121.91069544110148
121.98078009104658
122.22031572219105
122.52141598320382
122.27999826067489
121.24004945542558
120.23316902663392
119.55485578881722
119.73969973033336
120.63597330777439
121.73308586149014
122.72948327740264
123.41652937803565
124.2170309639192
125.16908145180196
125.60125928727868
125.62430460534796
125.5047204608343
124.93609804042757
125.05787070174688
125.42751147841776
124.84532949936528
124.27481505716625
124.18012235752246
124.3431079826664
124.56713365480267
124.23358679366112
123.01835995409505
122.94520157113084
123.37530399703607
123.8670229507758
124.27001590120582
124.01430410982312
123.92253687049184
124.53542950109467
124.73239235571832
124.54359549412571
124.56762210986388
125.26364066733952
126.2390097348559
128.22006512090596
128.86504750572288
129.2149922151053
130.04339635060876
130.2471961311665
130.31955636916194
129.95018186101447
129.0876263099032
128.91187271150773
128.96449365275913
128.9647981242039
127.98646838262164
126.34800794103896
124.73271191958884
123.59179423018227
124.39082082019671
125.48615068295535
125.18965050393638
124.82947934270808
124.99515354626962
125.60459665057121
128.3452044947204
129.8383563213765
129.55394333551234
127.10613699616374
124.35912590365491
122.68489091291151
122.02321933810454
122.73070239294285
122.23782594976167
122.27176988061309
123.0512673481133
125.03452576581573
127.43417988591764
129.36037101694683
130.36746014011374
130.96694752182134
131.51713927444507
132.36618035830293
133.70512744587475
135.24903438437053
136.94019808757693
138.47668347716467
139.2914359962129
140.3714978286682
141.06477568659298
142.31814615076516
143.38400374113846
143.97721664291413
144.2823475307466
144.61536371059043
145.63035607293116
147.28623176656868
149.44884692747513
151.50308406204184
153.6065304480564
155.61473549727182
157.14871255974384
158.83599793627886
160.1697663030197
161.5285479510178
162.50155146638505
163.18588275623816
163.42672779520672
163.5221194175252
163.94376863919496
164.29045238419212
164.67789876306446
164.9548487853951
165.0166086321865
165.4167756962903
165.7309926225545
166.22154201478477
167.11768865382277
168.20766150781623
169.6539140618394
171.00930160484685
171.84920179301372
172.42250772139087
172.77802736731886
173.37485761139195
173.95220742522378
174.70596689458768
175.2024647653693
175.67096660561504
176.28308682196035
177.0609647874578
177.60973464516255
177.77243458010145
177.80424578324187
177.80424578324184
178.00344071903808
178.4509637573404
178.83050139876596
179.0726456660532
178.89281951748927
178.26857553687375
177.51759383796184
176.70019654596888
176.12014674201455
175.63938291526986
175.16917866683798
174.02647525801927
172.76490118484196
171.2838954462082
169.5598760769718
167.52327134131383
165.8197005704367
164.74964826743704
163.58340539629376
162.44321744703106
160.40591344516582
157.64916856432507
154.4222327173301
151.5499932025632
149.28746205025575
147.57562121320498
146.5619845024848
146.53448081568104
146.31846032014565
146.45255280019444
146.74768405351978
146.51419819238774
146.28875127048968
145.95096047675867
145.72432292552284
145.99844407925198
146.72566169367101
146.99329724606642
146.83301825118664
146.63169622209153
146.4591253983663
146.515590530755
146.68477391423917
146.74693794741592
146.34481837495954
145.0908854018999
144.08301156577616
142.76566989913164
141.68313205298494
141.33530065291532
141.04716953321176
141.53148136834312
142.9113622709489
143.88368840972862
144.66757887587076
144.4513881476448
143.49420745467492
143.356528565456
143.19195005888412
143.48829416903826
143.84029713199692
144.17382802537279
144.62719341541688
145.28197227997597
145.639819719789
145.22521124085222
144.83752977243591
144.47403718967956
144.62452416209572
145.83055850035606
147.661422749065
149.89043235724634
152.45838347376443
155.21969963463675
157.74302013011035
159.822198804655
161.8907737010511
163.41961240425852
165.38061199931002
166.7750218443039
167.84750752571705
168.37048194039104
168.58064211461752
168.862423467314
169.2032656799013
169.5860294698018
169.82460280245814
170.19961487020163
170.4038879588887
170.73452557751196
171.14582112828427
171.62304555873442
172.16889509406388
173.04419117822147
173.98875032820968
174.9738683892421
175.67416158082028
176.51002005240574
177.42239321166062
178.50777451338038
179.83356747659246
180.80786078234024
181.58550764488476
182.19862795637854
182.5761226606608
182.7148079816413
183.13148009708308
183.5502814412543
183.9459132673306
184.38225835137487
184.7542076644711
185.05942579472722
185.4863331390633
185.77141665805044
186.18729532961677
186.56679381924093
186.84242878473933
187.01542534324474
186.80862433050538
186.46384806310346
186.05084847871368
185.60373716378717
185.3095995813015
184.9914111329486
184.5525100065514
183.91299438476042
183.21545440032386
182.15894760195042
180.7787860967738
179.3677405837551
178.01618068451128
176.65402922851214
175.24629019479633
173.95709214756718
172.75930495068545
171.82223255079342
171.49944322481977
170.86832807703482
170.12899117592553
168.4062284679815
166.5346532558412
164.812744573592
163.15108626197986
161.875924728436
160.66870205356122
160.1578693422808
160.27977720027738
159.90672256977157
159.46237147485562
158.70681351541285
158.25628941576957
157.98701998436854
157.66264383276572
157.60306091320263
157.36516286885995
156.83858977246595
156.54835493016557
156.08117818890278
155.9057420350636
156.19766023320614
156.54691564739954
156.66322008098396
156.23247650099535
155.59696823641875
154.92603531793523
154.41440114550468
155.01745414703652
155.2185766367513
154.99252729369894
154.85192988646816
154.063060316543
153.37936147882363
152.56560206238197
151.4151793602208
149.99895666068517
147.71845087245728
145.19849013321914
143.10214085679172
142.26359131970392
142.3437238667967
143.03306194516492
143.62281856701384
143.4305906549042
144.04180343453444
144.45097639063096
144.0856527760756
144.69037107954676
144.74019811448184
145.92211951578258
147.03272175836972
146.53228412627766
145.8338369109581
144.45073960600726
143.51355011623596
143.48665825549602
142.89486630698076
142.19946412249843
141.95731850671444
140.84326339343454
140.42684635156903
139.8720049853949
138.82625776727366
138.5427929821439
138.461061571459
138.09151615993866
137.6196249525144
136.25281750725475
135.21623015594562
134.92844582888324
135.08237789765698
134.9579584342465
134.25539286449845
133.1622264326875
132.74343444213596
133.21601486966784
134.28812406775046
135.88254426953998
137.43233834372654
137.9396428842867
137.66803375038805
136.23732223877207
134.7683288559311
134.37772764149875
134.92124133933243
135.73829455748142
136.2199505933814
135.2832717011543
135.55588798829228
136.88553405354736
138.34627484397143
139.71940852371176
138.53206952414988
136.81871838486902
135.27045326966677
134.5985719661132
134.5200419577457
134.74791641003404
134.39672340392775
133.8954694365356
133.29541201744723
132.5702967191428
132.2359544490096
132.30206781844595
132.35093375060268
132.01100925619764
131.8902914473151
131.64170692212997
131.76699196624045
132.00632799378081
131.39964132723887
130.9584810520266
130.3682787025337
131.0067331503252
132.22013543595767
133.68346799274426
134.78389497336246
135.488533156432
135.2864596854471
134.90285006047867
134.5184304053552
134.36466890300278
134.59350562696764
134.32755650049614
133.8948491494611
133.6609537362413
134.17762758761856
134.92002467008356
136.07066242973994
137.3033668141405
136.99380119780866
136.78840598425452
136.2011654350997
135.39048500407452
134.62514238439496
133.2084160689589
132.2538552412378
131.86309407973346
132.93610033159044
133.84364506196906
134.21611745500894
133.72107644017106
132.97269883630923
132.6705284678048
132.9758452501858
133.26725164182727
134.22564852487284
134.65373935979179
134.5530256902001
133.96520009295156
132.76938641114774
131.86806138177394
131.23288720113504
131.56470385010306
131.5225842046445
131.5663200972361
132.30874778210915
132.70215757905385
132.76561343743504
132.38203764351584
131.46282913889917
131.33471279168023
132.09349217949216
132.91431411649634
134.5851666921166
135.84529781083666
136.3793511557066
136.69297705474048
136.50161410017515
135.87641901614393
135.84860752692083
135.69335155784924
135.74627655595674
135.85048712665207
135.87727890720956
136.24309015495447
135.9816361164423
135.8787881464796
135.4435858730552
135.15935375603922
135.84631244209243
136.09928457580506
135.24459761563512
133.08601227620787
131.0009773063419
130.2400445079228
130.9245206727871
131.84958089894087
132.59759759880941
133.01333931262133
133.71701225060272
135.00571580865304
136.48313993398773
137.4560353138335
137.84598281428913
136.68219098350528
135.3127577210694
133.65322949531014
131.9254650566279
131.36086013809324
131.85017195389932
132.731088670322
131.83699735317086
129.94062050965601
127.74493179798682
126.84261394310369
128.04117239961752
129.3905708278341
129.93636320705974
129.73674037924684
129.51664571121395
129.96598765409567
130.85742168888785
131.28687112975763
131.79858282826063
132.43769566274307
132.83564458203094
133.81922641171755
134.64802430700686
135.0594450108422
134.91020549282766
134.68704205939724
134.29540972737067
133.97588046822239
134.16257522259565
134.26426198607587
134.7789674653494
134.8801676619878
134.90659769452623
134.18335019512705
133.3926007755045
133.75238826763166
134.53600451019636
135.13481150163602
135.51610337318505
135.3102575816618
135.28281500578598
135.6422881334237
136.3227035918901
137.16932826849228
138.54930322814906
139.7865513226065
140.76709301509376
141.6970668543787
142.0020212705998
141.2973424501792
140.95583105300955
140.3773121927272
139.74744644168425
139.73418912581315
138.84164551484466
138.37326109527314
138.33010113231936
138.0934935971446
137.95905880518347
136.83500203689476
135.95901651542562
135.64475882553506
134.86499249993054
133.53234387141686
131.9502940073926
130.391875835387
130.44235086429867
131.1639086270976
132.59204353160868
134.3453910087717
136.35180585299372
137.5461519416387
138.34793577012147
138.38872680336803
138.16054706312244
137.92142733571532
138.62806458943263
139.1466320055063
139.8856747402992
140.11335744481525
139.78857477776185
139.66955736068746
139.56741701004
140.03103127721317
140.00363864854518
140.6682082884425
141.43933209785598
142.53728974744206
142.54003870334168
140.6997138034
138.36431839902033
136.02975327828642
134.1015018074569
133.14151156962393
132.81210353913383
132.7086206235994
134.1723638976336
135.55243966689568
136.4006914368331
137.17876244159615
137.10070907372042
137.33413986115943
137.95383498144852
138.5275760548983
140.10236413527184
141.52225727756235
142.52346131060338
143.29330378403517
143.7850154319882
144.09969287722834
144.72522367739907
145.47550657205298
145.80979891514286
146.0333022907146
145.96872720674736
146.022401602527
146.4273408392546
146.85844279908443
147.15487746889838
147.31318647037062
146.83045162720532
146.12561864878737
145.28522253969382
144.7031573187081
144.46355724748955
144.55412238392952
145.45180816462488
146.55911271520324
147.6417363204636
148.44149628986057
148.60613852514913
148.6896290586196
148.49690200031645
148.44091095888308
148.8870713311402
149.16486411181853
149.24815750117213
149.1102407303051
149.1132750961894
148.89049593716533
148.64449053889334
148.09373641874348
147.37647325115623
146.3790843363252
145.65087673012306
145.14563456912828
143.90366753257504
143.09651379897346
141.97226576820916
140.89287881429527
140.99976719801984
141.58215894840635
142.32578807293373
142.69829154697902
143.32844615496427
144.16893175907134
145.18157372663325
145.95073872829389
145.8107535352506
145.33450839043968
145.09570472974846
145.20249826224327
146.08966670172538
147.37000041695273
148.68117811591176
150.09536035245992
150.97171484412982
151.39903732688927
152.090952098006
152.58866568320715
153.1478239196386
153.64297656132902
153.61278006189525
153.40697393679645
152.87672497278933
152.86925236051349
152.95429369362733
153.09324388939064
153.51501557653114
154.09238265403664
155.09092198704494
155.7116839118401
155.31508903450316
154.61202793606452
152.99917675242722
151.6701360894386
151.43436254165442
151.60996732332788
152.0976300058674
152.24033858820013
151.15660601261774
149.86761190009804
148.4894219837242
146.84354385283802
145.3646282740021
144.33091902571869
143.90645936394378
143.93545031676075
143.87921395376603
144.15776506912073
143.85109821006776
144.04239659783892
143.4337300454857
142.40413121117066
141.24824822625325
142.00097148923177
143.9374816216284
144.53841260053883
145.190333490739
143.58841195479306
141.52632737324282
139.8546951787291
138.08997939085458
136.41134976157045
134.86957589866196
133.2804543514915
131.10547234242364
129.38678578453823
128.20265298296613
128.30131574649795
129.2660458592551
130.19722196815374
131.31941986143278
132.5640311062341
133.75420716162233
135.03646849023067
135.69986007527376
136.87102354497938
137.38772381102171
137.65923268634182
138.55709740044972
141.03080230691262
143.5191926267354
145.75203122216348
147.1012169376021
146.77165257666337
146.5165839254654
145.9797968446827
145.61159229178827
145.97395670297556
146.76302540802536
147.4073876813505
147.86600114891462
147.59460123948608
146.9450319734234
146.74462636978853
146.09697490054617
143.76425488407506
141.61064839057303
139.96648325864606
140.2666740746023
142.81811656793673
144.3758812910123
144.6410832550398
143.98311116781468
143.56662812607138
143.6486352623523
144.10241268927794
145.23547813737613
146.33823821882413
147.14995802465177
147.71659097366228
147.3445482794651
147.04450063589053
147.0714293468347
147.07162235516313
147.39822469980768
147.80946582003168
147.89312286818725
147.24349739697675
146.22546224489295
145.3392607358853
144.9979035982372
145.52052421190984
146.18566343565485
146.58758822147493
147.0179459348206
146.7732072508268
145.79609132754865
144.43875316288668
143.40727570948445
142.99589888206694
143.29703742634513
144.2585083522776
145.3155494225224
145.81399351863936
146.13217214868524
147.04267372157955
148.5345170516024
150.69053412204343
152.6855621342275
153.20009540307078
153.14077941631322
153.05212194375483
152.81762861405153
152.97993095575455
152.27271818809396
150.86243617150552
149.03008528906634
146.59610396100396
146.30203483662106
146.7661357479215
147.46345680562447
148.35973091071514
149.26603174782514
151.27257718593575
154.45624554049198
157.4248867135587
159.1124919556576
159.43534064767908
159.40396153655433
159.0065725510066
159.00566201686317
159.38268641408337
159.67065434894334
160.16206010773953
161.49756621093277
163.037498326426
164.8317786197818
166.75465487970337
168.14586886477414
169.2386573718389
169.9507801902358
170.37283732518972
170.76620747503833
171.051047533437
171.17723713331083
171.11362936752073
171.1453050089525
171.27278648389503
171.70059508815353
172.198431887559
172.42224808498577
172.2623056486205
172.16544518956883
172.3272340882046
172.5837774001979
172.67984607550153
172.58377740019793
172.454186621192
172.32564726233923
172.55156955844174
172.6809008081049
173.07048138295988
173.55748758280265
174.11374055330424
174.12069905304142
173.8862149772472
173.20574738864389
172.0751243497602
171.13964542010945
169.959891012163
168.74670096695516
167.62592083957367
166.7639174148889
166.07460835551947
165.82289280801072
165.94937402162165
165.64130426793395
164.8163593401981
163.6246226762931
162.4986081050956
161.48300275190812
160.80972716887956
160.2485893920155
160.18716972017202
160.45670688864465
160.83070989293557
161.45087545571192
162.05001554899738
162.32317819125598
162.82457964507526
162.8245796450753
162.88513897303687
162.79648880450037
162.13918597476612
161.10880514271835
160.5268786146909
160.34190004887466
160.36963940434634
160.7709385624351
160.58643519188217
160.25462864825326
159.94567632810535
159.57876629741082
159.09699912123656
158.61810376825716
158.40682929355086
158.72900289212134
159.4960521466136
160.82011057159954
161.75963223246197
161.4086563431925
160.37583000948214
158.64266270613126
157.51611143175762
157.75763132644323
158.90549880379405
161.11826503861317
164.439482843004
167.69521312120384
170.71859611414212
173.3849931134215
174.7427657337797
175.0976202582938
174.5971270394498
173.69998950314368
172.75517071675029
172.03953451248069
171.96715513080315
171.81545221489165
171.40518264668825
170.28551411660362
169.03070812259142
168.008094352263
167.05037171615288
166.76222443127247
166.9582780565153
167.3723829197237
168.15773366650643
168.6767747495139
169.0165090294573
169.1942055803205
169.12943035036844
168.9556705232067
169.29874721742195
170.31120786602196
171.57514398655204
172.74898361303937
173.43362196955238
173.94896751657495
174.31013538578154
174.87099901432248
175.13479117516619
175.41625990264657
176.1878852473724
177.10104281005718
178.34164673405658
179.52835065369615
180.19311660101758
180.4272838819943
180.5624132019947
180.46106902429813
180.562705681584
180.66463106872087
180.83296057184646
180.73247889778992
180.59734957778952
180.29444978344824
180.0591312689806
179.79060882164936
179.42418121591555
179.125020356109
178.4971138574592
177.76881668545496
176.9185866028095
176.07436291086884
175.1705563218152
174.47007482250453
173.59561018520884
172.18182627327624
170.60268293089737
169.2118080495204
168.87089390954782
167.8641696620713
166.92571938499373
165.62349110903563
163.00532667592947
160.74818571218776
158.665794773551
156.26959338946872
155.124397848307
154.59520472016877
154.93611559128468
156.0002518676527
156.97685775791075
158.02707639463648
158.17207869080048
157.35585286438186
155.72338010242362
154.1938001540217
153.08899636881873
152.49915743058142
152.1479501015143
152.56792766656025
152.87289670428862
153.31928435466315
154.02167006818303
154.4834458590169
154.9906682388726
154.78202947133332
154.6251853524996
153.97079921498815
154.1432214177001
154.97765855166134
156.49286776886885
158.49854284656305
160.24594976101048
161.9803953147553
163.1283570204401
162.89907536739912
161.69049124074814
159.8810773959087
158.29468243114303
157.42674693376938
156.8653504519662
156.23027366512275
155.93960959320506
155.5341132056531
153.86988570961114
151.95945682098963
149.3015238522175
146.92719461364757
146.07793076291978
144.46374638948927
142.2810918276678
140.24165370586266
138.2681832746246
138.16155912340514
138.05553680516988
137.93605280563372
137.3401961032086
137.28706503984557
136.79184373400938
136.6853661614257
136.4703900157661
136.16000875485705
136.36788433600972
137.1719016405051
138.73545303462026
140.67798223058853
142.49357951278515
143.88393520553961
145.57090931172363
146.6548073831042
147.5490626134469
147.43435353455476
147.00371274078296
146.69611658302657
146.69514962723946
146.5595411714711
146.88575544617862
147.71670819574288
149.0759913892816
150.55650946595395
151.6045250621932
151.86046141904345
152.06244954300638
151.77412219483338
151.48661798677534
151.4576995699319
151.60228047120793
151.80529313420263
152.32623221496615
152.62379153085953
152.84716609439224
153.2051188451544
152.76396465696615
152.21371105213493
151.7206728858941
151.1150520061867
150.85627172024275
150.5461965070537
150.4617140395476
150.92171105635856
151.41246298271977
152.33069231836888
152.8212384676896
152.79148339171306
152.79170989371065
152.34374305937396
152.482908432035
152.37121561775368
152.56733299388318
152.79213276205587
152.82082474256316
152.84952837047038
153.05319431864737
153.3472185565679
153.52410599486825
153.9039557812264
154.2163125141854
153.96384514471507
153.85380394844898
153.325037107049
152.82085762666557
153.15054292296017
153.56478977891157
154.6557845222964
154.87936551315016
154.06848371125315
152.98181460159736
151.2927399105889
150.71435105962442
150.80321654593027
150.40984592199052
150.354052024674
149.59374136014313
148.42295487346686
148.03611661069976
147.26743190485578
146.97208341191538
146.7173700837773
145.98662021762038
145.1738512931894
144.72916214139465
144.36149995618854
144.05965089410606
144.08576937287467
144.08557999338464
144.36076595195888
144.72444103498492
145.28438803431663
146.04593941872346
146.89596011822067
148.28372181880516
149.0950542923651
149.5911620555462
150.34824800186357
150.77993277846562
150.80603291604143
150.4256420266894
149.25609565976885
146.91167318626105
144.95707318174627
143.2406652015203
142.1123786896183
141.63327923208473
141.13558875836975
140.4287457425601
140.03553737940197
139.36010653074462
138.36642829758534
137.67422229051598
136.76222856991302
136.741387828866
136.81708564384144
136.50550456425694
135.8686557976993
135.21677285283016
135.08746631878012
134.3619769227811
134.3373134615814
134.08152385808128
133.64645203927572
134.3951404123912
134.19750917579702
133.45328275830803
131.9455662773734
130.9397125499775
130.19766799053735
128.56818478636774
127.68470259172526
126.55509095455696
125.75458026123978
126.52554673738818
127.51473585101736
127.4571285700516
126.23754988052644
124.04024862550364
122.03500968595698
121.78319498864926
123.27909361632337
125.08637645787681
126.57210093939254
128.6996252575001
130.16431822090036
130.613708369269
129.9285436351478
128.4846555861008
127.13583359967868
127.38133966965282
127.38090925603066
126.98468240800841
126.11149016522825
125.72574073921655
126.52905712788035
127.94421769771725
129.89016810617653
130.38965757834393
129.94832555292325
129.48563303727335
128.79807162940094
128.42098057456252
128.3753631960609
128.67140335332678
129.2741318667642
130.41714787074997
131.69868048467578
132.848197585267
133.492933216037
133.5584466839951
132.79495017547683
131.3528588173192
130.21841111951
129.3997671044886
129.41253567674437
129.91876899381901
130.330408418849
130.47225802074522
129.89475485735832
130.29282300167517
131.57348972237924
132.98673139452424
133.8031595857017
133.72822954757504
132.52965146787201
131.90379815383014
132.48893959779724
133.3096897884091
133.72611526568718
133.40575323938594
132.10146743883814
131.11231287547815
131.3664503860246
131.48213220136452
131.17738512357292
130.8423493906554
130.25460433266835
130.2903710831377
131.23440270877217
132.06091735666868
132.3681281337402
131.58902619041947
130.44542576885374
129.0482606278025
128.54231086661161
128.39486120099255
128.61423999846977
128.51529093712372
128.86154630646314
128.96174431127253
128.5739738669493
128.04078383690228
127.13641130903741
126.99270083981966
126.61204801018407
126.47142314857209
125.6061774962315
124.95542160678627
124.89045106388822
125.17339677558019
126.09638659641485
127.61531592870645
128.45755885521777
128.26789037439238
127.71021704089097
126.586665370405
125.31642157884149
124.08635917139932
123.07856021132324
121.88275761623754
121.3147143587661
121.80191799982042
121.97295802069594
122.44218827179495
122.74227532483317
122.3600405072588
122.31145829229516
122.26232468675663
122.69824427971166
122.86410524583145
122.51438156337726
121.34065289269513
119.79878563655478
118.98921706250275
118.6039145518145
118.78117044512716
118.8713080256618
118.82611137989859
119.00652799933843
119.02893481100918
118.39227280094188
118.41608560248957
118.760608743994
119.55120886534341
120.23630060684033
119.2854103832984
118.05927793362785
117.09304054920185
117.04585563412061
118.7314856438942
120.55666621443116
121.90843367421286
122.88282525065853
122.43449800358803
121.88918231999727
121.14055767806829
120.9037925894274
121.11532069944835
121.3511271446691
121.30488885536869
121.5622458774672
121.97185812555686
121.59907543211666
121.69371079444868
121.31508832876065
120.74642119812792
121.16346567502009
120.41175352681464
119.24664987681048
117.76436296605947
116.50447814585321
115.40117282438584
115.38300339281507
116.81018307985586
117.7003619903247
118.03314501169562
117.61005966992012
116.2884620027321
115.96217916444068
115.98451355493516
115.94488158934749
115.83950275242874
116.24396350171287
117.61046565885364
118.55940085383048
119.12091054790949
119.10171545136515
118.29631742839543
118.56536950769
119.70121118243357
121.33225822259064
122.773971503196
123.34992586469136
123.13464629833342
121.65961709569424
119.91670273799234
118.31198528552116
118.14215172217168
118.45483263545145
118.59153552319745
118.72950861804095
118.61011142452803
118.6546605065709
119.2355632537225
119.49337897791875
120.17492096348859
120.2202471093813
120.23475466110793
118.70235356241191
116.60775556885186
115.05159753254928
114.81004841739541
115.90482605056191
117.32070501091113
118.4123483028393
119.12096943128722
120.01392222590354
120.5417685894102
120.97706220891767
120.53116424606547
119.74871832120684
119.37783441489245
118.99186471312099
119.14633507599828
119.25813186169735
119.39950560742513
120.15604923879427
120.77088604152367
120.57172829086355
119.86490547407523
119.91704748426041
120.65218976778011
121.8702537125284
122.37203178878548
121.07378534587421
119.9602711885474
118.08018433218176
117.40495724259219
117.7509765933202
118.45375403652088
119.23183242903768
120.1122211240982
120.47907301762622
120.59771741513653
120.11793029089623
118.24623152691656
116.9228360520282
117.03947276122426
118.27140706741457
118.55825132050472
118.39539083968491
118.5373990714827
119.26050485043842
120.64916480938665
120.32178030072461
118.22538697636787
117.08960962714558
115.94787276919207
116.97844715520306
117.84546830702223
118.20876142797188
118.6805829858494
117.79718775148476
117.39928611651617
117.50528755422627
117.68117783212817
118.1878583698665
118.56322484049794
117.84850026570763
116.59090410985604
115.64751109455837
114.54117146749026
114.58258306636753
115.12368564968564
115.29201381859417
115.4601592645185
115.92442485993891
117.11613474060927
117.66989133423712
116.73129709313496
116.19072805412182
114.86116010989035
115.96430973982814
118.08957609117061
118.4139827350128
119.17283596477327
119.95767599564228
119.47944193007437
119.28859116114246
118.89496918266512
118.57931295732456
119.46144338149949
118.94869152823559
119.38113036363325
119.37707736307239
120.1806846576138
120.43820400026887
120.25518894054211
119.5953802579286
117.79582588036884
116.36463162098002
114.02551364879284
111.57007139138331
110.37214222103282
109.13355278948909
108.65991148250282
110.2430353519773
111.51708092567135
113.88289539378505
115.2011241775629
115.93728245585149
116.92116351144134
116.13769849919508
116.91742953505259
118.86340838972751
120.86291690246408
121.5632863935873
121.44693395397901
119.5730722908732
118.5667439835967
118.73429842068319
119.53846874763357
120.12154753605277
119.38500300619879
119.38842414663698
119.85522485688027
120.45516332674684
121.25918719308036
121.3765958796468
121.90013657109493
122.66559173899294
122.79786682632118
121.92681799958766
120.86820036242436
119.78592887026247
118.47607531061098
117.4522914048227
115.97915039340482
115.75331566851513
117.91103477324364
117.28595272343844
116.60349740738549
115.69884166120605
115.08149559701071
116.98234698471558
118.69173612822206
118.82260087639045
118.43976377544391
117.66644453471781
115.90126459404655
115.3703558485735
115.45607116771338
115.60476665172928
115.62414096824565
115.437385950056
115.0292645597725
115.23351219913916
114.98903982350876
115.14325046581142
116.10992575169354
117.56449091992144
119.22982537077486
119.29211598278718
117.88612241404003
115.88177038946392
115.30884729926545
114.93365301708954
114.86182097073122
115.4258470433163
115.73137609374035
117.33043244037341
119.9290610529623
120.12541213102539
119.84102999294923
117.95510957538656
115.4577213067425
116.07333793950261
116.88958395018469
117.92610630392443
118.12454815320258
116.40870719510266
115.25432011584307
114.95171787334621
116.04761550725584
117.4775980643815
116.90775543895307
116.17053854054664
115.84257968809065
116.43554969736103
117.05816047329829
116.97464729305052
116.62915946220842
117.89038249714028
118.4020377289781
119.10973588471387
118.97006185377388
118.14882945392263
118.07891885315404
118.33180364400569
119.63841942773952
121.6012987208765
122.6131437787957
121.6512950772333
118.98691344818576
116.22891229161739
116.45535441339331
117.55781052448452
117.9410013161446
117.29932340347203
115.17337966561476
113.56063163633284
114.40471984835848
114.20469408763239
115.16323742510173
116.37374527212107
116.64142932687494
116.41093727303372
112.99350019230972
109.78853034085786
110.22752480288793
111.23626350123384
114.456150482528
116.40538187808595
115.8463175567369
115.71476400953203
114.92511294863517
115.48802622345431
118.36377818785463
120.32291466439223
121.16167079182566
121.1591563583257
120.7071799679649
119.38975570312535
118.36315297389972
115.69803761400235
114.9093675101545
114.17919766948594
114.06469337255517
114.99785644455645
113.7635395608352
113.95846764506054
115.19361063528974
116.79371664717709
117.84061208927508
118.68643811383835
117.15892161504914
116.06711709709862
115.67130718162436
115.16211959590959
115.91469646284938
116.31024567343803
115.94636712353808
115.72308389380903
115.62920334852815
115.5786410522842
115.89709946318172
116.40018244327263
115.90922120981205
115.3242076655608
116.1035713692899
115.47306218375245
115.91162504889293
116.79498169122797
117.43054004562406
118.47939576611456
117.84521015659759
117.40030716838847
117.26857599137003
116.96839222886157
115.96566030339054
115.47799318946376
115.14567391625958
115.36706774284274
116.27190779520679
117.22227472009595
117.61992527948927
117.05187345350627
116.09737089803009
115.85643539839704
116.66154597397842
117.87326487650925
117.99736994604676
118.27180274445591
118.11329440166716
118.87239608034069
119.19789836109884
118.3366223048085
117.9614617036405
118.3044160890382
118.04610784195
117.35786101991081
115.35074655039156
112.8332510614732
110.96153176008582
111.10334112653682
110.72234828390928
111.58975972919562
113.201539453702
113.52774863574493
114.77917551199
114.00245166972836
113.96612747859366
113.99302952686425
113.10623613673668
112.06569797584167
111.01016989109166
110.21987638486496
110.91912976569941
112.36942577712901
112.86337263954665
113.66288161589848
114.13942416725317
113.75385953587686
112.37248252259874
110.14372772185742
108.86135607692124
109.95639423870388
109.41366111883586
110.189987457555
108.78901027214071
108.54402252549453
109.36530161662904
110.22656707861049
113.32985722597768
115.39281265674158
117.43870276067466
119.40598001981458
122.15613127612143
124.06012799519439
124.95583571775768
123.55611093422226
120.68525877983238
119.19975488222647
118.58326805043154
119.44315923608113
121.05424685178679
122.97123083775824
125.17254119042097
127.36852122380597
128.4711524685163
129.1443250189614
129.78042159279136
129.36411493643035
127.99399670451857
125.6371371907313
122.53048172216982
120.87172921300292
121.02535684653525
121.72409704570504
122.6698142873354
123.56968199221089
124.23050494513129
124.82089643524158
124.91213196765732
124.48421748283926
124.7103446232816
125.17437716071879
125.59321298018622
126.29490234059114
126.65467610293055
127.33132063713735
128.50473451968378
129.41940024140365
129.87586834733756
130.5669620875313
131.58547850344166
132.49679821745997
133.93881872568315
135.29326137533394
136.01196740927315
136.65664060529286
136.61505309997162
136.47204277448785
136.8930558473819
137.47637026005827
138.76339460481688
139.8863287242592
140.63495930065625
141.3150773692515
141.95490903059843
142.71178980774766
143.54323115105302
143.92118696138652
144.33255223281006
144.7789969639339
145.76214323061984
147.09144432869113
148.20747257375754
149.05739655005937
149.16587732524422
148.55896432920858
147.3599857763562
146.04552999059086
145.0961627159017
143.98103793627766
143.04040414920664
142.24728940840146
141.58683910139118
140.76157424185288
140.47574989616476
140.2658835100293
140.29011646491102
139.9310569512885
139.76319974241306
139.59443623071894
139.67266096747278
140.22918681837422
141.10825421262416
141.84527086213586
142.75651193800655
142.89249651677486
142.78940960853865
142.12860597931373
141.34443175208412
140.89771006765852
140.60582635881633
140.17317300627357
139.317521708664
138.0207278955196
136.7737593624569
136.15280938724547
135.61862100561837
135.16248915859953
133.8644685703262
132.74491221433772
132.15656338884378
132.1784443262378
132.21059219881778
131.36620610935262
130.83614192254515
130.8397854975083
131.78448600040232
133.4429705180366
134.327510112892
134.65059460628834
133.71818021039198
132.8619179117161
131.5389478958513
131.02250470728902
131.13449741673048
131.52486498320246
131.92477900202442
132.96155338892814
133.38307980756971
133.70586670612863
133.4846331817452
133.1955857704343
132.32805022081743
131.66925601559018
131.15528136616737
129.5117530909095
128.88084741214215
128.23283320525547
128.38643563647298
129.17344813893885
129.76405285622997
130.06340882854164
130.16562375174863
130.57718728534584
131.51288476742667
132.16401531375902
132.2411534100504
131.27431760244687
129.71227049791776
129.38344783273774
129.68568362007534
130.51260993368606
131.54617170735744
131.47235079223677
131.71970730261438
131.8642592774258
132.3784943803359
133.87393416428324
135.28742266661277
137.43834872110602
138.57288038894
139.05050068960972
138.6248675217289
137.90769238952672
137.6380275361738
137.66525589523076
138.059193032136
138.97831843422102
139.08580550137117
138.48537302894496
137.41839816073596
136.9700597517051
136.7754330241469
137.05916293886102
137.61140240824716
138.05269909803982
138.85066363707236
139.77936403939628
140.90118575187924
141.78099350474204
142.28443467632374
142.57234056478774
142.56959806179162
142.3259887485728
142.29926711168164
142.32527619566176
142.5154573820769
143.50818343973594
144.16338577019602
145.08603887204288
145.50805243113388
145.33924553416637
145.49861386755754
145.07243615061145
144.32072472954974
143.07481878483998
142.44265757485408
143.07755726119888
144.14802912853628
145.9061376392514
147.09906245329339
147.9886156447389
148.18880290831817
146.69699619158507
144.91715134309405
142.5672110663507
140.83201269918146
140.4813183814338
141.72333053889326
142.89057204021822
143.61007739251932
142.5802114080661
140.80449990144984
138.67086079234065
136.98969625591485
135.78259840697126
135.21535458508902
134.90744782653445
134.67987818843693
134.05285261179904
134.0761987931808
133.94722406820446
134.37897749030398
136.51072185175667
137.68783000788207
136.2825197314644
133.53709990155622
128.82066744990172
126.18412745382037
127.38939190761127
128.75354034491997
129.80386751853243
129.29060618109716
128.25993037308285
127.64507115446578
127.54384238483965
127.54355152427186
127.49753749980343
127.5740786349374
127.98854495377444
128.61013120593077
129.19961246360168
129.59260138531764
129.17641878950906
128.60228731167544
129.64444285332667
131.3545972639563
133.5719805824746
135.2368685425446
135.77210375682196
136.11062098061396
136.13707946049664
135.82969542725468
135.19184522003138
134.0554832652894
132.98018804679538
131.9922843064274
131.07826825056372
130.36815235521016
130.1100263569164
130.14085234050816
130.56217931304468
131.186945847145
131.2345734981517
130.80769787081832
130.49971248065498
130.83677526358665
131.61385707791814
131.98935929742942
131.8483146452749
131.35638292172104
130.87353508259417
130.42736148891282
130.17351483132472
129.81554253280066
129.36102330399876
129.17061917674027
128.11975943384934
127.26326965577636
127.58315434662528
128.02499962597204
127.90931182986566
126.58954900213693
125.26249542909866
125.78290853552295
127.26032922675337
128.2079855446746
127.62011030126433
126.1918890291321
125.67166153105919
125.76181912897513
126.15638503872205
125.85151627008001
125.27868745431843
124.91507658430803
124.40915953445091
124.3218510562725
124.84890568166168
125.93424701830244
126.86253531233399
127.50238648562689
126.97287690796719
126.80434976592821
126.16496358668734
125.09584972322632
123.97469080910793
123.02010378624769
122.63191453450314
122.51936787971137
122.36618974395485
121.79938110821182
121.49247081042593
121.58936237565814
122.08657319082228
123.33164310999776
124.0550006337181
124.79986487532278
125.68631796720089
126.14307636364808
126.30619794937058
125.41565217586997
124.37539774414621
123.47298726342285
122.90682202873893
123.3152230928189
123.65839167664988
123.28663495436442
122.98247459132352
122.44492373756279
122.54342149176448
123.94830939360251
125.17822882442223
125.68556230544996
126.08801664371319
126.30417709088861
127.01750285711196
127.37340242819602
126.99288118227074
126.82535709172316
125.61972693316548
125.19362329491187
124.14878958278584
122.85568015599796
122.37824952789197
122.08170906738015
122.60389027169566
123.29441344707425
123.63099809306459
124.1737611648539
124.49293925596066
125.15252744428744
125.80715082213459
125.83075736104192
126.25099355083861
126.50975828155444
126.58257911026101
126.23231920889069
125.7430956213858
125.06081112110878
125.08723234309794
126.4743645724698
127.04125141385248
126.4049656402158
125.44522681848645
124.01394501365021
124.49832229455137
125.29842045489775
125.14436766387666
124.07478750799801
122.90179413604241
122.06060158526856
121.6844023170018
121.04558619251222
119.3430629847053
118.82124171301415
118.89148059231745
119.77540565871911
121.26522449284495
122.61360480411236
123.79089167516273
124.89206178415975
125.73451393411531
126.06369391403302
126.10964858959301
125.78209842573922
125.97256558614282
126.82167179333189
128.20830369675065
129.79568451597916
130.9806090514387
130.703526724553
130.2871312429269
129.87071107413954
129.44051332377668
129.19853628230848
129.0951011483589
129.1200299232877
129.3405095590881
130.55503602135894
132.18318130481674
132.5014303451953
132.6556789613948
131.63504319676008
128.8238197052442
127.56830963801983
126.51997338756499
124.99329890466899
123.2232725160282
121.0004701750257
119.73049297284336
119.89075698442343
120.9276230915741
121.75490900701048
121.6443465914655
120.94083625152682
120.82449557464119
120.98515649145018
121.8885476214146
122.82921921198948
123.41094318151573
124.52965778009593
125.33582977931874
124.59066350312241
123.20013416472557
121.37607818494489
120.14477673177889
120.05149272136428
120.88468018381303
121.46595132586079
121.30336092779235
120.91013672376961
120.3104898245178
118.71679380957617
116.9648759354085
115.68450794723923
115.46104754110276
118.21961081080221
121.48202933299233
124.08157239260275
125.80067141952293
125.80053051536916
126.18277346264614
127.1738645549782
127.8085815859147
128.00147395822623
127.54552409440291
127.17638641298129
126.45100794283647
127.16158675940534
129.49166246432574
131.21222993053945
132.31913073867898
129.71770458421568
124.71897084778429
120.72214679692792
119.72459816125577
122.33342938091869
124.0043111679497
122.89202823832385
120.56915389707208
117.86484515274702
116.53015783009586
117.97740940558813
120.45134879702553
121.15955141156833
121.48159764514976
119.968370632916
120.08168751315407
120.89870482813222
120.12688542103034
118.9979024828584
117.94961164257582
115.1100197367607
114.81116184670996
114.14416710269448
114.00826616464403
116.3606262375561
116.49299413127015
116.06499593856579
116.04271536245375
116.36294917820003
116.905966440328
114.99379931473166
112.50379929422209
111.43047577378414
112.1706157911246
114.65154087619702
116.56931798378234
115.76148297695856
117.0456074763556
118.42603281478914
117.93295372286713
117.99545421297898
114.74327110361453
112.16417405752891
112.92242028641428
115.39694483766138
116.04565545339831
112.14410814648258
109.41620924342261
107.63596284196895
108.30413486951116
110.47841298948823
110.71959542770377
109.57224630687733
111.58014819104235
112.74269695958706
114.17209586888445
115.89677000584526
115.03260416388794
114.13798028638288
113.12027612101588
112.95440349285904
114.4904834207398
115.56170329478604
115.59092878039912
116.04852413420284
116.46122224098511
115.6569759784956
114.46880487747426
112.64905834487449
111.81398696334904
113.74931373643085
114.00593338156496
114.92230451386406
115.47751737877897
113.12814488771978
111.064483048408
108.66168960604513
107.74767693742291
110.21808121266673
112.58180546347322
113.07384716461094
112.64939022375395
112.18194798506957
112.02485985705312
114.3391992802486
115.49838871125493
115.73636542541043
115.5897001193239
115.5917291641517
116.03077649694464
117.24570882754047
117.85741073868063
117.22502765813384
115.61376872449436
113.02734778322723
111.43864338390038
110.99162864751723
113.23142114576845
115.44507974195078
116.58985591243933
116.72240309558367
114.53281062633086
112.25727185193125
110.94394505178985
111.05998797435136
112.76389070393824
114.28255866673159
113.50591157782351
112.29058635337715
111.58723282168027
112.64999477288548
114.23248592043728
114.99676589146011
115.20059645333927
113.91078804217928
112.71669851522122
112.13442359880571
111.46251978836109
111.63607068802808
112.27492019900467
113.1950186599876
111.68012454585367
111.09795297774397
111.50623643085791
110.90502769439297
110.78354989544839
109.24297543941239
109.71741829699074
109.74933322220954
107.64487894274963
105.9603764028821
103.28455124984522
105.52279578076471
109.12175165408959
112.01700894243402
113.65960251886702
115.03269944403515
115.83791965212029
116.43839122338036
115.71487378034784
114.56692245735962
112.36650443953044
111.75633030287045
110.54295666741783
108.58192348460379
107.06103330587166
104.79426439640002
104.87367489200507
106.5595446790369
108.88691609811501
110.57996181437672
110.32928385088303
111.17783174547198
110.9496887152298
111.1296452578539
111.19052517557608
110.38162769997683
110.2044676892781
110.95268375594235
113.61781853625521
114.64903199588952
116.38178921751891
118.31928345669563
118.92552704321469
119.51200200733061
119.28406742492312
117.78330578867896
117.03451747740156
117.91480289262691
119.21077966023509
120.3858606409108
121.71300742907782
122.128016590998
120.79756274599131
119.41918743147204
115.40471025902738
112.44757568416208
111.56995796819744
112.72066551084103
115.36700785490338
116.93764113153168
117.62012339733825
118.26146787365766
118.73131644143119
118.71549421366585
117.7988759253098
116.55334730204547
115.2585146027006
114.63509053506337
115.40875146692422
115.54734342399648
114.84622702168986
114.2255204620499
110.08199045083173
108.7603690495741
108.8265726003677
109.28496883261313
111.14870112702867
112.53148995672417
114.3807744206524
116.53135198796441
118.97750129007976
121.27985630529018
121.02226764877017
121.0044398002519
119.68951886410827
117.88343889000252
116.74928407630928
113.14430532114966
111.84424570135093
110.84973172110834
112.041739558122
113.9874232884207
113.83020370306221
113.30449267031534
112.95747421358453
113.5164394273102
116.31163687429613
116.86638621977131
115.67246291183179
115.38936490964821
113.6156867560064
113.0765669905766
113.33895283315222
111.81339070201946
108.93101418093156
108.35582237237344
107.91190059893641
109.13757657917446
111.22650499073929
111.55887703202144
112.63194712697293
112.22485576043705
112.18354651820913
112.2489729341947
111.48746685380648
111.83083768456731
111.97543931456455
112.0430577696493
112.06340411736984
111.28252338421434
111.93070538170605
113.35006750862938
115.16835833918104
114.90598929606588
115.26634227213908
115.5786479318101
115.97097472344343
113.78021390518313
109.87521297041523
103.91931811537867
103.41935979457843
106.51220822193302
107.2368124207068
110.0011276816351
110.01764318673004
110.82209286133123
111.48550443096188
111.16984299730132
111.42667571727746
114.10025781154957
114.29859520322394
113.32484199460289
112.62484060850197
110.98840755005234
112.71281102326908
113.05003562506282
112.92746179665285
111.89703229130582
111.8442280485168
111.51143851015887
110.98226314149439
111.28300292311818
111.61612231175461
113.55706381979064
114.60237441788453
115.29523559517627
114.84003238205014
113.59850056840541
113.7637768410169
112.55882250026198
112.07502412522467
113.01947943060937
113.22770778106717
114.97582804572376
115.1331403183376
115.35827617515727
114.7100146064296
113.27508841794204
113.51870254904442
114.4198630457431
117.07849647894211
118.017062984562
117.78420581926005
117.29158513190313
117.47901231207112
118.48937166026691
118.02480174144378
116.21170241020361
114.36460595946883
115.91854810434101
118.26117166355493
118.0402279225029
116.73951082802208
114.49158657521878
112.88675081471514
113.85548108018607
114.5000074912423
114.83135485069562
115.97963282823329
115.0837570130707
115.2578913164162
112.24070181063739
107.76712683761323
106.81980560753766
104.50529188965538
108.0966321236539
110.29788654380044
111.59297686040192
110.14393670169999
108.7383565060494
109.04107880747151
110.6402587899121
112.01765001471611
112.90686375212272
112.46161731824455
109.78862773955541
108.98185432475968
107.53106052169557
108.83987136374094
111.94686621333848
113.30553395724914
114.94493362504296
114.85881886731998
114.68158055202233
114.56005565108764
114.22316221841562
114.29440106029453
115.01643893843018
116.63848905284462
117.96741016898547
119.38465237229222
120.173990816903
119.06640476259498
118.89282027971164
119.26293670572869
119.50988721263242
120.82957399150123
121.06001505466796
120.5537751300815
120.37273296272939
119.96844008461476
118.66646430043292
117.79999855323878
116.97637874657254
115.60466642406988
115.01374374007433
114.62909474513437
114.24168837602892
115.9348480714033
116.0674054274292
116.43189799215543
115.97053393298937
114.99603895123144
115.06218943004295
114.96946321033832
116.05795318567286
116.42212816848067
117.15656020951836
117.88666238755559
118.21350572147853
118.1901589882542
117.08704859847121
115.60481654705204
115.34606195399412
115.39973389224087
115.58111588954257
114.69623767576999
112.87278476320057
112.50939640973414
112.73598541317725
114.1094031049547
115.83657582369511
118.25029572228848
119.70302780573296
120.16250696690973
120.03847505211189
119.20143659261106
119.39685387678738
120.51646205778778
121.43575485995892
122.06530617115669
122.97640696018213
123.09197722248479
123.29879846162423
123.05857434754651
122.63047443726913
121.86161209152297
120.99303596768907
120.09415459388966
119.37298830016371
119.42447105637893
120.93314487121795
120.70349279694106
121.42051315736734
121.46040490475569
119.37104996886089
115.30929933436711
111.2990190968683
109.34403349755988
110.46828651860385
111.90047587925088
112.73525845121841
112.92605583575853
113.59404620175118
113.47358166967767
113.39249250553193
112.54931849249999
112.74551221546892
113.88115918837438
114.46751227815268
115.3456191663921
115.22701460645601
115.05177259426841
113.9994970386534
114.01189763899986
113.99213621712262
113.21706527392688
113.46394281281114
114.21164317885716
116.29600898790667
117.2592851422018
115.43021906583618
114.05095581312791
113.30629897323618
114.18978105330264
115.43381809431857
115.43090102749716
115.87566106258136
114.30988524516174
112.93680859113627
111.55380406324613
110.45577664514994
112.0183671587465
112.96940090746884
114.21707992186762
115.21748541510797
115.51369877802288
116.66899576613201
116.69356167349315
117.22428725642165
117.81403803894796
116.63771115755733
116.01143238325412
114.66023216346854
112.91021049042709
111.76058165458049
111.55713370729971
113.43835402764974
115.26470434853219
117.87543778167652
119.76642531030058
120.96060820800622
122.01591868426802
122.89035079072319
124.0718089686794
122.9723958406533
121.09187873640323
118.10366680342499
115.76790139855062
116.49523895875296
116.13579940629481
115.41265242119441
113.8027826451922
112.41219016107111
112.91460368790287
114.69650430218572
115.95994495601776
116.56266618082971
116.93868676631088
117.16217640821633
116.66523819722507
115.08810857959429
112.90022663884223
111.64967974080625
111.32324396643087
113.23738306773075
113.06451925798908
112.89059682364346
113.21763354915359
112.46663619190842
112.31757447201107
112.86706977240068
113.82697016961738
114.6104748685502
114.08385307556632
111.77325565138406
110.09563241964588
110.30909025650975
112.06572124262568
114.72864247518544
115.96407689623985
116.68460415392185
115.5231751136543
114.16108142874022
112.53057799565897
111.5661909660085
111.32725187455712
113.46825832739596
117.27904828211973
121.89304177904752
124.6179310104442
125.38630869234902
124.88143421959779
123.26880243795192
121.28032394185335
118.36630731845777
116.0512691564417
115.12342641345188
117.20480619940811
120.1460970211983
123.27698751920549
125.2116648245357
126.91231633156976
127.08444777704892
126.30670288008258
124.1540402287683
120.66778697651678
119.72855460122356
120.33788416721782
118.61649023725552
114.54863944213604
111.03303512323885
110.15656152800037
113.33053714288339
113.31010222654433
111.13001645851148
106.02891862292924
103.05767790932447
107.36445317774147
109.48304658925885
111.3430531992643
113.32497939749024
112.12270212766815
112.09697257482894
111.87304824879762
111.1026040031555
111.79538296394325
113.24789932654127
114.35458688075924
114.9961380049062
115.46705036376693
116.454884872309
116.05594323419821
116.2368069471395
116.47595299996874
117.11658459907515
117.44017034966049
116.83373258882327
115.99222604847925
115.37799445809046
115.37267146435455
115.7763596415303
116.42173286659067
118.68324874330006
120.85835063983764
121.99110332213074
120.99910801322348
120.14716456320947
119.35855363191371
121.25389247356718
122.76113285853441
122.85113300240084
123.0291270101373
120.1629530640566
116.93139396369727
114.901615373922
112.61906639511172
113.01926768960818
113.30877532833559
110.67838780506659
110.00929011160727
110.98427076863595
114.40754597346154
117.27018433252898
113.41949152213236
109.32258765980293
106.22480208800492
108.44961701023381
112.99886109676369
116.52511948315183
113.49181911994444
112.72803728041733
111.5399560160913
109.26255563943705
112.00740977577796
110.85969481585396
111.23023253447023
113.97531997380426
115.67121865771522
117.08459490893576
116.98360851200259
114.84082853834943
112.41221809528038
111.00886447047286
110.89839652826967
112.23944096097982
113.14460736677295
110.93203324900581
107.53437386089406
107.27263053157374
108.12094954445986
110.42828609677998
113.2678234363681
111.30014152338599
109.20130109296413
108.81647522169872
108.26960801482639
109.98459194263971
110.79653270207892
110.1846757726778
111.41269939782322
113.22064401780146
114.84312681346054
114.6564473801783
113.44043838356352
112.84962778305496
113.57745001707394
116.04037829088675
116.5989261589838
116.79295338265918
116.8863550704567
116.31016896645072
117.94142201782208
118.03042439392368
117.51118139846604
118.25809099078921
120.0594579044
122.11736433841239
123.5053809815713
123.30902827029337
121.27871892496418
118.05203580938966
115.27342574865929
110.91125899882304
108.26198474107042
109.2459596703911
110.73982497037066
113.16741732729648
114.05840912576424
113.02734363257319
113.15087465747888
114.71522505295853
115.25226121095739
116.92455304392075
117.34213242930356
117.05085757801147
116.74126358651647
115.32805436335452
115.28355612597079
117.447167464541
119.27586630882482
121.69502413415942
119.98401924771451
116.06716894066192
111.54549543962229
109.43602133287142
112.7605411730899
115.93142653512948
117.86765769857074
117.04656566144043
115.51821026597638
115.66294673278249
116.56665617466165
116.86145882094377
115.4849368177784
114.01268967754628
113.69962925883112
114.65597560939379
116.77563850615886
117.18052849381525
116.61380695343806
115.95404309788219
116.27288747397607
118.5701412728568
119.33804258431958
120.48859785044239
119.93592418920608
118.07448779103446
118.38226607966966
117.16923655753999
115.96587641821692
115.09516102838576
115.19219312372218
117.00535106519598
117.8418374712672
119.21154549579532
118.05380201643779
117.26711379908937
117.14032051674118
116.60267670002021
117.7062040934886
119.85371766415959
121.21992420558331
120.68219597639798
119.56071805485503
116.7977283446679
115.36868250739361
117.18521205228119
117.92196339753717
119.61367323490519
119.9977558736102
119.83539490492261
119.60542956684192
118.96173786314532
116.82967395053774
116.1741965898875
115.33120039175063
114.39113927106305
114.3720395529534
112.79215275290382
112.87540952415519
114.23163502780653
115.56865786327877
116.94676393630324
117.55449581816279
118.2648359411425
117.95190436299342
117.78261020894641
117.0402574809181
116.76892955681987
116.66814548413286
116.73536014429085
116.0587367956509
115.56297828414746
116.26011657731809
117.26984274889625
118.27896859366393
118.94515214305473
119.50021339246408
120.67463958723427
122.02289376351942
122.62991524505591
122.04995831248857
121.27191406860075
120.01178920661788
119.03836911723378
119.20924398338096
119.93904816422614
119.28459371171633
116.9300781804963
110.09481201146879
106.08447135070566
105.53378698714899
106.21199385603913
109.0820043324806
109.77888453537459
109.96158028826791
112.00032704106574
113.00554324962835
111.78850135700024
110.82679446942926
111.0973607853238
113.35135266137362
116.91207061515351
117.11360941887953
116.54704290498458
115.09389494739327
113.62607540261355
112.06465518627184
110.10399687377854
110.55419791683074
111.63158557259808
114.15616342847552
114.71574345005656
113.54478515366438
112.77313578393549
111.08080768357969
109.65811759336809
109.8390463490089
109.52395403577438
109.40605801110341
109.13217177117076
108.4819657915466
108.43556822673601
109.79654813406333
110.98896613553131
111.63651594153933
112.47583572969509
113.87933915111084
115.81388015931323
117.431572124585
116.70649769367643
116.17677142268867
114.09702696597645
113.85655094207517
114.45840118815595
113.41777589109651
113.51972639858282
112.45293663567138
111.4797159389518
110.84016715929978
111.46692240404808
110.84147714316558
111.36314815184927
112.44574713404207
115.09937814710179
115.3807249801023
114.08384797942621
111.99665296968185
109.03296425026757
108.6856807256316
109.64178672789706
110.62344353443525
111.23975413110827
112.07496098090878
110.67401345263197
108.62547532931347
107.19298664588648
105.86921575794453
107.09252417149072
108.63372872215574
109.22512578171778
108.76463156206093
107.52011566398674
106.28690395866481
106.9198871900442
108.92169037985234
110.40698799919541
112.24311233962614
112.8095601597038
113.08338815024585
111.78385125843928
110.60172711251883
109.18255311405473
110.08814945204699
110.50917743720272
107.33452454424703
106.46813287198667
105.88037965292348
107.14332756065667
106.28936695793666
103.80449088630755
102.51407619605091
103.35937545010447
105.21029795476045
105.09001985938684
104.7724073869008
105.19599179171895
107.5615007152269
108.14116153990163
108.72867662332433
109.56872133461447
109.5318559622856
110.84281676699109
111.60154109520047
110.71269181601383
109.8898333561393
109.41001247277424
109.86653635609358
110.8690441758798
110.37403745317546
107.0927759312258
102.95981790515408
102.65817310525925
105.94326039046008
111.03070904400309
116.11084005446949
120.22996373320122
123.45119131089174
125.80384507223806
127.56176447194089
128.03281791595487
127.22091607115948
126.20660454449148
124.96576931895336
124.7985285491146
125.38793627430644
126.6449650900399
128.55041321309503
130.16300478224815
130.97987392895752
130.53074194214477
129.40740084210557
128.37918063104362
127.73915046079284
127.32386033731525
127.44549398141291
128.0880868651929
129.67096883707364
130.8241629008898
131.34723946370002
131.17911487726664
129.75194050610918
128.67619144412924
127.6251802717203
126.75917366995859
127.44419020047167
129.3955570128102
131.27943573460934
132.819768157498
132.72955042997452
131.29560671515063
128.60688657522053
125.66653635808177
122.79334348975387
121.14205571019674
121.32864230032246
122.33663516066478
122.56902560456778
123.06182710866327
122.9374152986774
122.95922595916362
123.47859483915627
124.22751959323445
123.86142692006153
123.07149064622345
122.2311597602121
121.30369348292588
121.04758945299457
121.2139908762441
121.71272110994158
123.11906518732411
123.76722752388596
124.57070831465764
125.97344450438877
128.4134398912863
130.4935247693966
131.52873616486937
130.94385683325595
129.75587541590784
129.1252485166902
128.64620979040734
127.9025083626246
127.38988136208619
127.51315995787469
127.65103978520494
127.77020120209974
127.5767695870224
126.89965516431555
126.56068668114034
127.13640119197304
127.95146773055683
128.8516285685672
128.80469105472994
128.60820410466374
127.31358915695688
126.46979895251658
126.18675213936919
126.060886687047
126.53855129695918
127.57837282546058
128.31006758711266
129.2865722068378
129.35999876351565
128.91581874425282
128.98170990731217
128.91629190247573
129.26367179762497
129.92023189743148
130.13906822948366
130.4393155888177
131.06810416280555
131.84005428672603
132.4648222004768
133.2431330091393
133.19039995597953
132.35752281103873
131.42378879923922
130.73165655331263
130.56969857784725
131.21411711232264
131.9618024301592
132.18518338446242
131.95905496576026
131.54438181331514
131.5894769759321
132.71098431869999
133.51393467752507
134.3693725205939
134.67188549867925
134.51778110425985
134.44252746237862
134.01627691215165
133.81304104430254
133.1636945501934
132.94108814288688
132.67970636122993
131.94360510201446
131.42180165152467
130.77995025991436
129.77637824456286
129.46036400703602
129.11272207200875
129.42804959039216
129.86529073531523
130.21432489002817
130.43759471103252
130.03376272892524
130.00867959625697
130.93570379997797
131.81676147418472
132.43565923928819
132.99321322964875
133.423204332153
133.80031979857122
133.97298768459322
133.4822750051159
132.32252561473166
131.59572141830012
131.6938039938443
132.4077136706267
133.32484088795744
134.3962816604153
134.97824273564115
135.8248564914268
136.1348919938237
136.52482669728357
136.81225640437933
137.23722488439694
137.8669244737189
137.82351604196992
137.1542469705862
135.84512300743194
134.4459040097226
134.09038681219144
133.81391682243236
134.01416318522067
133.15338304122014
132.45275321700169
131.87989656359045
131.0305277593752
131.4750824269693
131.43642740121444
131.71990231595896
132.4249445063391
133.1690742381337
134.09572549475203
135.2960508412952
136.56538867130777
137.8270374877874
138.31839147887845
138.56557760787754
137.96586975446507
137.33914743352292
137.33932331265478
137.41926210238148
138.29959059395114
138.6949004304452
138.9142469856895
138.89739278875658
138.4930479016937
138.29853327506424
137.3466742676477
136.71991142256874
136.45583093418
136.56192390333376
137.5586249862212
137.64062597361334
137.504459253519
136.77094591083252
135.64823352970436
135.62431722204184
135.9105546380575
135.65409180427972
135.80737604739795
134.78092513675432
133.9165042402107
133.21110479949965
132.86629071936852
132.5216273458646
132.7436014536887
133.18897391039968
133.33886399057818
133.83881917712395
134.4462513429968
135.18739996600266
135.5948357905247
135.85044993952334
135.85213958387462
135.46323781336494
135.21102674445856
134.6517793969312
134.3180814302459
134.42142063056735
135.3679010643887
136.08784649264078
136.70859545072426
137.286595901575
137.44488835183867
137.65951410470038
138.00117971549463
138.92629441897188
139.2925145692044
139.17548973125602
138.81692171332932
138.09239969179308
138.66393597587472
139.3164695788302
139.41214272095127
138.56208996358816
137.55949641663275
137.0790942341193
137.08803882615402
137.20922307740852
137.311925691966
136.99671992306477
137.31633183426743
137.7166321649103
138.0080127792442
138.0897198149323
137.4258789640138
136.76274595097863
136.21058059370236
136.3169875793467
136.5246709364858
136.68161654990868
136.61621552682357
136.44833913547396
136.02902343850883
135.62241279290737
135.26037938147928
135.15638633983883
135.10528927551695
135.54312203025088
135.74713002557945
136.08398033170846
136.29099696354928
136.98249973610157
137.9623412429209
138.21918975652528
138.14335861852055
137.5936020901184
137.39805267809402
137.559158166933
137.93953381954933
137.81794859300553
137.1903151110247
136.45373821666553
136.1630568143762
136.58648007383874
137.18956400940985
137.96169374347016
138.24099774045717
138.59426594135377
139.02966596293032
139.16177009616177
139.13166791168908
138.88960377331261
139.27232174818383
140.04419321279647
140.76541426253775
140.86878202088377
140.40050259773656
139.59541272430914
139.26724926914383
138.8724069684271
138.4843722507663
137.86401030939126
137.23256445820238
137.85701914029724
138.58890257123457
139.03610128937615
139.28899039040905
138.77279111580933
138.83615077532647
139.07880378388617
139.33415685723972
139.45642290333842
139.74660295648633
140.21262831930832
140.50189307669928
141.34523675266797
142.01194779836592
143.33675349038342
144.37243184007707
144.5375084526228
144.3204352485019
143.12038417986216
141.87828356068226
141.34598938610478
140.71295349598742
140.50150116427005
140.52583983933488
140.57839061652328
140.6277966955713
140.73237448219066
140.73377127433372
140.8666651432455
141.50997101933328
142.00773725341864
142.27141554924265
142.62267606381874
143.4493542550858
143.97340083237228
144.56333903347593
144.18129905059473
143.10462576851558
143.1320857945634
143.29591831233142
143.62134918172217
143.70112411594593
143.78804121783298
143.37831615584145
142.76255240818492
142.04437683494987
141.14418608302398
140.8955156701101
141.13512167645072
141.79771952814863
142.24809900874573
142.1426216689414
141.4816703988189
140.7293379020154
139.97882715571058
139.6950805719388
139.70431906517828
140.32189468242998
140.92714740738666
141.4469563173375
141.7393131713062
142.35947463341
143.8230116737705
146.07464231253306
148.58842849391993
151.6074901484774
153.97286049467468
155.14398374204208
156.052262128228
156.1103052459726
156.13791760323323
156.28250686195094
156.69918406195197
157.5901554412907
158.9799153470622
161.06691277466828
162.79802239784016
164.48896073173165
166.08391826446422
167.1166526848211
168.36790408517768
169.87753418764518
171.48530519679318
172.85251432952208
174.15137800139044
175.0393559175143
175.60241559820506
175.63804856124733
175.44756034189817
174.80662635097633
173.63392322324077
172.0906038107318
170.55222111105593
168.84882550526373
167.10800366637108
164.5572307464399
161.78623189928823
159.02995455019618
156.75568673164628
154.82720583806554
153.4365144623567
152.14156151278272
150.27008188686833
148.62177667963968
148.82233574720092
149.02784871810906
148.92100271783542
147.80233118892508
145.61392249198587
143.644876750456
141.76946076563692
140.84575300566453
139.4207942854392
137.75265492654268
136.5558563822101
133.54933888425376
130.21040874429983
127.25480237518289
124.1664729702568
122.62470266401905
121.54995298612155
121.20595573809955
121.38607083448187
121.68176502584669
122.64781081329961
124.0629176821332
124.90656560427867
124.41986992529156
122.35298045794524
119.63250785286151
118.3710213696037
117.59664739083087
116.65605712242784
115.60842681797597
116.12279858720325
115.49676549766231
115.45202307149475
115.37779254745779
113.90752256195715
114.32621212730153
113.85034010603962
113.44335622226438
113.01770176812265
113.18654100810821
113.69269674869813
114.28686882839222
115.31880111399775
117.57998218557134
119.01769002565209
118.94764049453481
117.44416036791526
115.43861765081498
113.33056079065305
112.5143822493673
112.32446468673989
112.3291210252158
113.90806579163574
114.70029699880943
113.87812972624634
112.81233486881251
112.50889482402555
114.35550383888517
116.81339975061104
118.06200696452318
117.13059739758329
114.75781272212387
113.30405088288376
111.83366822433196
110.54233724708862
110.07447321158581
109.74198798592327
109.73820738450861
110.40271736524905
109.92967111892169
110.06934572580795
110.01019791334106
109.20025896987461
109.17142807734692
108.86456090656327
109.79125357377345
111.22825547947703
110.42130698295459
109.73666310278233
108.82341950214104
107.90667740073796
109.09005875309416
109.20354978973455
108.58368289540182
109.1137404998048
109.05239468281708
108.71665139197299
108.17048647364327
107.27499719982482
106.07458314216721
105.56641820887873
105.15704982966795
105.2148664473434
105.74379048055175
105.88693126194462
105.8653595875667
105.44772792190898
105.4641259658215
106.72401356555032
107.9944549475486
109.45508693261017
108.91152514818025
107.18946354130266
104.90956920859989
103.23849553522157
102.59074707465454
101.8189194255564
102.18625924524437
102.94828288870029
104.64640087596636
107.5870395437348
109.58032150953916
111.12653003359425
111.26870071647764
111.2047587088655
110.78544759985212
109.96696051715746
109.59852736797363
109.84750452952741
110.63034118059757
111.38582644813626
111.56710536166526
110.42633081259098
109.59328076190415
109.18470803194353
108.47764276285201
108.39935775380047
108.09305538311075
107.72871080007398
107.47038441443466
107.81947882183835
108.66966617739304
110.35091054178828
111.12158167743628
110.81823364983732
109.68360255611303
108.32755223709451
107.18331914564442
106.10676904980836
105.74129741736837
105.00359475261031
104.17038520955036
104.47522252719315
105.27689345656124
106.52823419775534
106.35256722163278
105.04943267609563
104.22281660028176
102.70482380475717
101.94606060905107
101.65345531390919
102.24212078328985
102.78922466856568
103.67541141974779
104.67745409736318
105.70156161873517
105.74346803390407
105.83620812746584
106.00187904290118
105.15557362505403
105.01243284366117
105.46462939771126
105.45660655069464
105.86176438130931
106.41047691770798
106.29059343994996
105.66755589347045
105.6317798250788
104.69974243260896
104.33961939802587
105.0215592156277
106.19115632079783
107.18932995693034
106.94421962526397
105.75381763153314
105.57071285302202
105.63450105203727
106.63883206210927
106.95536968761732
106.71462299004462
106.43507924680915
105.10586368047305
104.57642361715233
105.30079608163891
106.73197580263026
108.09947241108368
108.92507695902825
109.61192401078213
109.90071518628541
110.81457712908268
111.79909234478023
113.44180946876357
114.87315715993438
115.24756808222837
114.20888653150351
112.84276381659825
111.03090030068256
109.0029691450833
107.93714316589906
108.2594391792684
108.72056112870554
109.58767925186109
108.34739347959695
107.35737026126884
107.16061187290316
105.80652364958823
105.48969374946371
104.41702951046051
103.60540522634862
105.26847801519541
106.08398759714967
106.70466204233146
105.71460260237941
103.45053482576321
102.41461741214368
102.09410486462869
102.67825321260874
103.86398178837649
103.08166142408754
102.52189589284075
102.68772798993167
103.69000460379178
105.3640118001396
105.91061268180171
106.96876384519109
106.75825933857901
106.54797619232258
106.70756291888998
108.3416352064487
110.91515892324075
112.92241151443197
113.58805977566799
112.39358356129665
110.90388787787226
109.00747200161398
107.75715612782459
106.93322797997642
106.73699217557937
106.54072997721583
106.85570158866967
110.35687192305689
114.69561500082814
117.53716086434595
119.0852245886185
117.70004878110093
114.75948618799605
111.92876601890597
108.9953537067304
105.96826744128303
102.67895290927358
101.32922868073705
99.79000523842019
99.73420257954777
100.54047512911598
100.36154900435893
100.62156707973226
100.84612627724961
101.15829416882238
100.67719473854443
99.7984640176474
99.65732389765999
99.91907645991348
101.5628762625441
104.88034626050589
106.00124110319118
104.76867961965402
104.03961264649757
101.06369549820617
101.14141295940037
102.142871400778
102.6696988664073
104.03628338222104
106.22822158129269
107.88765945271449
110.9550099249415
111.70274908699567
110.62247312056805
108.85716161003805
105.84507944158302
105.48045870561934
103.88291271912541
103.47871874925349
101.98359598673807
101.5620061563013
102.65781542310386
102.26758730142652
102.0643078402576
101.125699329756
101.6064537012733
101.9212148339102
102.45543864709481
103.27538109077311
103.32572170987845
103.49484502078764
102.81894777139883
102.17265390637553
102.91791873480976
104.16352127616186
105.04608850747962
105.41956665237146
105.20130795513056
106.48225062789349
106.77917409708233
107.15575076195258
107.43214394424274
106.57298188348649
106.94028480030767
108.22192420854289
107.6234083143935
107.06187137360384
106.46784030400705
105.37087243741679
104.82122650515339
105.57150810812753
106.26765594253342
107.19550414010784
108.26466486030314
108.27312802954967
108.27056153404833
108.4236166878505
108.97889161811162
109.41019646966825
110.22933889602268
110.64375693872037
109.90059685554499
108.12494961466015
106.58246780039808
104.95815871012428
103.9794340133335
103.68002103901289
103.22509568769321
104.21948987335152
106.03709461906273
108.66466396068384
110.31457603283651
111.8792989310887
112.5704129485255
113.03397286962245
113.55785246845333
113.15115269889554
112.38903714261782
111.43950775652705
110.92585918359846
111.90761430280108
113.73215856951653
115.60815498048237
117.62073576323934
118.47160920511928
118.47197845611203
118.29679353367942
117.49271580446609
117.04481047876027
115.09850710346802
112.9371101987915
110.53822634714437
107.24338109708978
105.94425351626256
105.88176850659069
107.67789113883079
109.32625607376296
110.20385089513289
110.06286439780249
107.4932820705012
105.85416910575539
104.28609242200625
103.55485448329708
105.29017067130395
106.48993690062841
107.09131053393875
106.96051456941207
105.68832933128652
104.81825883171412
104.55688506234878
104.3473223127751
105.90546019557786
107.50950790211265
108.63352057929318
108.34340929548848
109.06830693979173
110.00457668934146
111.28938942566035
111.77055441352056
111.84386333158506
111.85336201016993
113.94696608610641
115.69523351184333
116.04564332459795
116.07181606599725
115.85278782290746
114.98837771630097
114.485746096968
114.48399107434668
113.35443005343113
111.29552653673157
109.08034874572327
107.14498673918735
108.26810418552704
111.09566855121038
112.3419531448383
112.32168711846332
112.7958283021284
114.53750824208646
116.51166680193538
117.79458996434654
117.8961715290151
114.97550006220642
113.3425301685984
112.0485544145142
109.4568992657295
109.23681260492425
107.68965445283193
106.17800817997308
109.07684694266457
109.4245806759226
110.913158817124
111.94790545233023
111.7785656340037
112.70768803535213
112.13316055173338
111.22970241271913
112.54010511418846
114.37249723648684
116.99424906603925
120.50195110351295
122.97644148562648
124.68910632473906
123.29826873380937
121.32502030177805
119.65607756213376
119.09612879402826
121.14869020567609
123.12631402083244
123.46645384977208
122.16418584498484
119.31885346086202
115.01001141493961
112.14575446949605
110.93122759717058
109.36602076497057
108.17334975936706
107.6832352518916
106.90643203382746
107.32923387803227
108.62517412963629
111.17299910047234
115.22453750283648
118.6049816804708
120.59805408503058
121.21945576682717
120.33000664190443
119.09923065320348
118.67802588911432
117.54185914832829
117.22991303353518
116.5572409754975
114.289380270297
111.47964381824873
107.62828398351327
105.78990603389646
105.19965939636283
106.60110268099515
108.7140915413379
111.58098343893816
113.48550886334932
113.73625316374991
112.71295613992477
111.0609118034853
109.17178554433606
107.27005493468229
105.66555905318464
105.56854339063656
106.10227029082648
105.60052630284396
104.77988040886409
102.95233698553226
103.37623211138886
103.25184271658284
104.29731506051522
107.37031978659357
108.40025676165112
110.13322067187963
108.31810060858247
103.61174929610144
102.18776285776836
101.63934220446343
103.48657910359513
105.11859656745625
106.0873190629944
107.43274159262677
110.3200805339338
112.86049508412188
112.72320658402202
111.86748864136767
111.73298475204146
111.81215085842656
114.11143714367063
114.1286670511498
114.52524573895691
114.98503827166364
114.06037470049348
112.35096676978449
109.72610729977711
108.07780943522278
108.62832567159238
109.87687907736297
112.11660443364556
114.22928363295637
114.03324236411787
113.04188273874738
109.68189779142612
106.728294698192
107.01279830837105
108.97526709957211
111.31629602816267
110.83486468801678
110.43769033973129
109.4184680662847
107.40766151058543
105.1805653218139
102.84997405488473
102.59934499636088
104.10242078887474
105.23044838057552
105.30713513285653
104.40094954655538
104.05305663060314
103.72253049129462
103.42152640295716
104.36182519909677
104.91078067513773
106.14345527504517
107.24306465165252
107.31413360333546
107.84239095669498
108.06592073658734
106.9460793478735
106.65104473509041
106.1511126967695
107.03026809972513
107.85241353092839
108.27592079833855
108.69249465650954
108.20235765388801
107.01703899595887
106.1063929284737
105.45486669105286
104.47647955705445
105.03626329229282
106.01535155164319
107.73236900472784
110.96942591845233
114.01863949243369
117.441582219177
120.79290929328869
121.9794878225785
120.26305447426792
117.4732849763436
112.91960758647603
109.79169502121432
108.94876377558496
109.46709460175563
108.95045936495441
107.82123231628229
106.19573522824098
104.83033806110475
105.1253664959846
105.62100887364849
106.30474503861885
105.07731121846524
104.69817324713487
105.0278078604699
105.81490676238813
106.59926720882747
105.6940335328556
105.89104213825941
105.63521807401965
107.53312449239192
110.34735148160074
112.02376664090774
115.13580657589769
116.44279881444363
115.4136487623439
111.81059236264556
109.3079404810383
108.21195255278293
110.7796768907241
115.00223408946599
116.37347226958921
117.30147591186304
118.952133758546
120.16022369057607
120.52233245527215
120.58968020171434
119.98812513455456
119.89323700998982
120.37906395794711
120.33962091881304
119.47470980554982
117.6410828922848
116.67309480602334
116.63314455129036
114.90343915328476
113.33781085264687
111.6584884222759
109.68214932814762
109.21410190609704
108.43806106036581
107.95013383865033
108.98728688627462
111.36142782490903
111.3565335629845
109.2867103688674
107.84174372248403
107.2290921130232
109.82253785427817
111.2850436842846
108.6215197609149
104.13496943230248
100.943022672905
100.85336138930231
102.68496302095416
101.96332507893715
100.850937254735
101.2423679927798
103.21266690470505
103.69018891168018
103.55261229041736
103.89967882387792
106.04270308216937
107.02796432049715
105.47814557072333
101.53396218847193
97.91894737121214
100.25169282499269
99.94391372468911
99.45940502172182
96.76251470221136
94.61774383031754
95.82033093126893
100.23893571231132
105.30247810771212
111.63817636404075
117.05839140718881
120.56789522763425
122.94214195086755
124.22688264173557
124.27310329627484
123.87962815124658
122.57886046385843
121.37204175610417
120.96593774172828
121.93073029968495
123.10832667057784
123.73131376077617
124.09232751098217
123.8505295601181
124.0841196660541
124.64253726003517
125.31966483777077
126.44426614475657
127.4060478530773
128.1024941354461
128.56574083073738
128.54156288102752
128.19890279903285
128.1251772816571
128.5016132533768
129.97275357734722
131.75175676410137
133.60824330337198
134.4006440797935
134.59984892071392
134.52314030135756
134.01221843244534
134.47601677954768
134.9585461205085
135.18837949762602
135.02819268267928
134.92683288128615
134.1445552038871
133.7675730658772
134.31456660533948
135.21973262771422
136.75797375372744
137.44853601730946
136.66915601395186
135.46749673274857
134.05661894240956
133.2192231108557
132.49840997742345
132.08686932347308
131.4905455750549
130.3248909408957
129.5098155569194
128.4071201544812
128.06076700479935
128.73338911805172
129.12139974760143
129.85987633895118
130.37074964356347
130.79945721389115
131.48706411822639
132.3309614441228
133.2682853843364
134.14175962430565
134.66989515814114
135.30897030875843
135.385849454741
135.46273017517976
135.63332904557063
135.51415094943962
135.51246872823424
135.61831631672575
135.23439911862891
135.1553554449434
135.00387817609138
134.95080024129686
134.56799765923157
134.3187600315248
134.08652077651635
133.9401956880424
134.21720977015084
134.44346786864497
134.6692332594482
135.18096869772742
135.28380703585987
135.51716812830477
135.23822023503075
134.72648479675152
134.31634294286442
134.4181940150544
134.7991588031896
134.90034953108616
135.1546887614068
135.64478451264335
136.60605710985894
137.37870702180012
137.76449980825265
137.3313300283711
135.61363473109506
134.91139100185538
134.16712501226328
134.2939479702227
134.27043467230735
133.91912168330788
133.99505769798114
134.07031133986243
134.2985259219492
134.7734001400403
134.70087351927486
134.62010923475472
134.64540812304926
134.31439023595155
134.33952485597445
134.6982041360775
135.7025452147008
136.56904218565316
137.3163530213128
138.05394504268565
138.10866104060125
138.44122361854747
139.10687094684798
139.54308156538778
140.84921194294253
142.51879404904452
144.5056967020382
147.25268095825814
149.9232339828828
152.2400349369972
153.92519506033796
155.32728344511247
156.28852766724305
157.43517240527396
158.62838370517167
159.42303369508264
160.46520932027153
160.83304283285398
161.3094557736528
161.9172585993688
162.01081920784458
161.98946395806777
161.66800337903902
161.27616304162152
160.9530652052523
160.70739004716276
160.2222669990323
159.70343495283035
158.9248694547507
157.85115408324958
156.6129846121481
155.54455657630055
153.84987758486824
152.5921970241352
151.4618718105062
151.43337169039856
151.34908410114403
150.56818357647072
149.03561815611718
146.86423711942473
144.89661846105054
143.0534091830168
141.5157444849708
140.2120455726489
139.04011712982032
138.01833153367392
137.56597562052826
137.42664534293021
137.50361267770955
137.78651034566923
138.0863733469595
138.62040458992988
138.78119472395798
138.22659260345247
137.05843389615916
135.5664070145107
134.84124190099394
134.4586264990651
135.25418962262424
136.55294095751026
137.81260920399313
138.28687830812416
137.1051582331272
135.67072396718834
134.30255979049613
134.52825319605896
135.3455541122321
135.8580320899161
135.98787552133265
135.8335808373613
135.73141970414824
136.61931511664486
137.90985182204506
139.78514913255356
141.96989675223804
142.4680409778675
142.92091303263473
141.47169967266976
140.12135643278364
139.45879707251984
137.8350469945607
136.8143753357463
136.02584192925832
136.35807859838448
137.64709264226533
136.611567138335
133.91289714827167
130.4201834980807
128.10118154800466
126.89886285515193
126.30004131637112
127.61018615519318
128.23707765868645
128.9036045273922
130.3521175076465
130.0330156980135
130.71116331739964
130.20759892898317
128.56091350746337
127.66656650204918
125.96531164183827
125.569788742694
126.86145604661834
127.40873047873934
127.1582367522236
125.53984269093954
123.59561153328418
123.77285975719875
125.7101639278649
127.06375827102514
124.55646968646063
119.80772843198615
115.09430853797899
111.97373786603076
110.08587126400337
109.87798000649451
109.54107666770734
109.0634520188311
108.3787935786955
108.21324892181214
107.71101208723886
103.44183457919274
99.09703016793038
95.64934381955868
96.55416023633167
100.94593951172504
103.14134968017896
103.8338909933124
103.9501955798637
104.10724128008411
104.75580585055289
106.21846094938321
106.94310046133752
106.69687974527422
106.1609447637633
106.7095487444643
107.49937508812324
107.37344905043719
107.43310756557024
107.16093056999954
106.48666605215006
106.04511858464903
106.71734489972191
107.33849627969579
107.18516400074934
106.63070820982959
107.7068688077345
109.11627410711522
110.2237102039033
109.89675913692463
108.0788030569647
107.26903495228474
109.62412326132785
111.47747278124761
112.07764071105537
111.41684652449045
108.05952606218231
105.41150997417047
103.86208546027049
104.41167003382306
106.10741697543936
105.88064465982575
105.39721901790335
102.58399267250019
101.82236226589897
102.8072731649366
103.01708451409897
102.34386411461811
102.13445681842371
102.82976938239602
106.41672786088849
110.40005209995957
114.07667655667868
116.9161724944081
119.9689306869628
123.31689792286191
127.13658348696913
129.48917549461723
130.95873984066407
131.23392722922395
130.49985179448595
129.32728773610916
128.41019098975264
127.31086931712619
125.90947502977268
124.20567428370677
