105.03603052300089
109.08819284696261
111.71992919403598
113.40571966396041
112.81118523851924
108.40147728763964
101.3857022969781
96.66422068824971
97.00327875600097
101.75073272009057
103.88660178282021
101.96742972632806
98.27960404406805
94.46686544194569
95.9615259117736
100.59166150956858
104.89268510594385
108.41608975445146
108.92396581816836
107.74942069233977
104.82564878515917
96.72576237565308
88.64985133664005
80.52151647373455
81.81440654594076
86.27632210076078
89.60937334475675
92.57767641363176
96.00580335786945
99.23100568904664
102.83453868133888
103.24438121208263
100.20450703312227
95.12399873711497
90.69395344809162
88.24808040491853
90.55648583838352
93.9779788638285
96.00403129222276
95.98584402529053
93.59366762139165
92.35030311653827
93.50097736099109
93.08355488697386
92.40429285797197
88.50228590003785
83.2896734382874
83.2697308938842
83.90933929868503
85.0697785801787
87.4120060378757
89.55014794891989
92.40929726507687
92.80090573883568
93.99655724884124
94.30811447479972
93.7846409464632
92.85747487271189
91.66340169692707
92.8026538347277
92.84894666574188
89.46791817446446
84.93440690931897
77.82854910756723
78.6364980472008
81.95278128335701
84.56523250491101
85.19388791586047
83.92700428494727
83.85921096898674
84.47876166986254
84.97687006136721
85.08546563334104
83.3697726420901
82.25866270249718
82.51906943055643
83.04069697131743
83.6721961957584
84.55662654963555
84.72584943809139
84.4642052191985
84.2880404975143
84.3187838187926
84.88986679017978
85.4180526322982
85.28297812309475
85.05455070966076
84.33246663498304
84.5843720422692
84.34436132515512
84.67342948803889
85.83476429116266
87.20112896123341
89.16742021960202
89.91183177882395
89.50900092902566
89.44125604155776
89.38628917436382
87.94084140662405
85.63696439885389
81.23967403732487
79.33418170067777
81.81378371896062
83.49938495230568
84.27946254203911
82.98846000279987
81.99970054242527
82.87945890864424
83.07267150529317
82.85277233666498
83.02101916307065
83.53215916431934
84.35829425381908
84.82965475526522
86.36702338797747
88.25151018100979
89.57526538543931
89.55897513186359
87.64724816740683
86.48656588971123
85.82086983291832
85.01942868163921
83.54740699087543
82.72201472777273
83.63748992326215
84.69403129829624
85.22258387477817
84.97711741208663
85.24708528511977
86.82011314911608
88.57589825506992
90.58494891498361
91.9388682416091
94.64672909657962
95.65671321155754
94.81739286441268
92.93374684338484
89.23375040704326
87.46811552693246
86.68437332625354
86.13467251498317
87.16006146112831
89.137307668188
91.35285251290473
92.22642549643051
90.80649143503244
88.42180411980857
86.66241695850228
86.36046512693444
87.47081641584019
87.41022823712532
86.2186803972414
84.08909071259708
83.11556585747577
82.83588626736183
82.80920759487445
82.16896558763509
81.48661225079569
81.79872532071474
82.60881833273726
83.34372442096962
84.1337504260115
85.30594125427766
86.17734226303449
86.05656370984694
85.61714116056523
84.84707229131591
86.07948986315989
87.80962564127195
87.73186753203879
86.37666317826202
84.53415611594727
83.71311237844671
84.54173689240088
86.51609555424389
84.7870093463733
84.12111176478896
85.09032926693364
87.84457393441662
91.59152753516922
91.51596504644644
88.91735552464428
86.49788519273021
85.97888840183701
84.44795742228521
81.9601500013449
79.12289242972757
78.81711621680955
81.38302060280645
84.11042630946031
85.2050845074679
86.5040103107669
87.39366835141881
86.80506662154487
86.91555432278345
87.41662235207556
88.77598552158679
89.52256058943341
89.17411839138877
88.85722823383477
88.87099456983138
88.94070452218092
88.46900634610307
87.42175625447034
86.77974371728882
86.02474489779007
85.75625803095059
86.00179474522186
85.70835921520678
86.6024614292593
86.69182620924808
86.11681949425314
85.40638232382248
84.22645374353172
85.20129230035768
85.71023217452776
85.36959864217502
85.28262171710571
85.55180626135774
86.35102571617037
85.76727591451592
84.71377894325141
84.21634954075337
84.88729658686826
85.49485786282106
85.7051263493986
84.91117081907365
85.33521113488624
85.7652118438065
85.0499706730135
84.23069157099246
83.32151102178622
83.47964265904565
84.96618660757348
84.66694372553768
83.58153100020996
82.60904801560007
83.11490679341773
85.07589126643254
86.75643024956744
87.34466045033979
87.01086252182584
86.91445834543919
86.51242326025776
85.92842307514665
85.7164543622895
86.1898693063969
86.64484699301455
86.17280396131223
86.36584386427954
85.42485034040564
83.93007775107488
84.08447830877208
84.59941561522723
85.73870367709748
87.26422602978968
86.26674977213656
85.38892714947875
84.68949491139173
84.71307580185959
85.4083193870474
84.26651803447949
83.09713893092695
81.1785801169228
81.3163249921325
83.2101565924493
84.3446560025396
84.82819076986112
83.8715692083783
83.345846104223
82.96641413355418
82.51747879868387
82.38945305679896
82.04219856473061
82.538201531213
83.08723093954147
83.13402070167803
83.61990834548361
84.67952859650069
87.0765149623349
88.43749336179528
89.12894820457694
89.60414490063877
90.87431577853609
94.01445615956526
96.97286597817867
97.7741064582617
96.331260191171
94.96043871386037
92.77261369745982
90.33223705952118
88.5067082644045
86.36937300735427
84.272839116193
84.130063621358
84.07632431360737
84.8279715372819
85.44554094076004
86.04700059613221
86.10164012142914
85.79349315822674
86.3645021736501
86.53561531655056
86.25374465178197
85.43490489607471
85.04470637367461
85.98342033586168
88.94368049397322
89.98240843890734
89.62534809928705
89.02888550222634
87.02755438483047
85.51426291206795
84.29709190111988
82.42058531677449
82.45589649072612
82.99054507773329
82.15506934840737
81.20537498754716
79.6542281881018
80.52315468517229
81.97971821473594
81.70959483375793
80.24147888421098
78.47841405107152
78.7392215353409
79.29430116373769
79.72470752189969
80.03806302915054
79.94538598768072
80.55900604331059
80.31058040675984
80.00602570860154
79.68454515582788
79.49554462274477
80.70036661724603
81.44759115676608
80.2256762225534
79.60586730677426
79.15529244885279
81.78539306063334
84.98023092317257
85.65764978689094
85.18674654918927
84.54863853722539
83.2032715291754
81.98229892400386
81.42034242714382
81.19784756587352
82.56292340676188
84.03638459814007
84.3597909580175
82.6259735926325
79.67926755078297
76.8501220258294
77.99349324187581
82.21899634657568
87.24125939124411
91.98982678046293
96.29266971223403
101.59728653102547
106.33065991659137
106.87093626551682
103.89437155963695
97.28959405883342
91.9435554125674
89.6384524645007
78.26950392142294
89.38059343986063
93.09553714983328
97.27531600779322
96.18555542696943
94.2954400809629
90.9448976145254
92.7602692693644
93.8309680230604
94.52610312132327
95.16292172580876
97.17473270735383
100.75378253300799
102.84809921724184
102.55288910690221
102.20551857335629
102.52703331795615
102.45124342018974
102.6646476318029
101.57243072612974
101.29064706415188
103.29566470232979
104.44663153637467
105.01536812847722
104.15567951432038
103.21569358636201
103.76420267702562
105.17728916570834
106.11450605468531
106.15164589351683
106.11224533724615
106.96802727373097
107.4974446420607
107.42592304274893
107.01095267055858
104.95849666798608
104.18732283988564
103.69852743032203
103.96415538930157
104.81769954031189
105.33274393705736
105.87926958857278
105.63873221330634
103.55269628877107
100.43964247017567
97.34805315161196
96.33574094142962
98.62169356546293
101.3672073556635
102.27401950869397
102.86222850561063
103.69158574366932
103.28419165753036
100.04775382694696
95.13773864945382
86.09041214543882
82.5733061034976
86.33928261069039
93.07170000193128
98.22816049802286
100.93933141747272
99.57751082147264
94.53035641610785
90.87453177792057
91.3753747627016
94.25154932555706
96.06794637978358
95.91988774893521
94.89695101056664
96.44045385195739
98.29787028308765
99.01443005849704
98.51750516764317
98.21799630295031
99.53478040040643
99.99875178206258
96.17204507470171
90.51790544288157
86.91816076658633
87.09778893398523
89.99659007057086
91.43890272488566
90.43831010618875
89.3371560537068
87.62150267438197
88.63599537080569
91.18855950195326
94.28334271044464
96.47181396506261
96.27559194746767
96.96327564929891
99.86812909647567
101.66649772737144
103.59558748397166
104.94106130086185
107.85902181735875
112.07915031407194
115.26478400696712
117.43674501886218
117.73565107295191
117.95590350834621
118.64961314704257
121.26706075941476
124.49876513452462
127.9793239544755
131.3101810662397
134.39147099024063
136.70002299297005
139.49844635296787
141.2703245607969
142.96537342378727
144.0656386048823
145.0362374465593
145.785997119099
146.4036433832773
146.9764458373167
147.40359511303532
148.0599047095143
148.97788843360968
149.8458770861862
150.66404604164222
151.4589164646005
151.83339058547546
152.29756493991695
152.87369600169714
153.63041822196314
154.30697813215437
154.81880113261198
155.2603441966537
155.71110711683434
155.93572502090575
156.4301011171099
157.01782677027887
157.60860087712427
157.75557687327097
157.72579037239638
157.54702389971132
157.5445612993853
157.86850843812792
158.28561677113368
158.67452129570123
159.21093009589399
159.82257943896053
160.12830063805242
160.54423195806208
160.70879942274956
160.61502430989046
160.6000551910372
160.3991131525994
160.0938724163242
159.6410558126873
158.91938861457334
157.88227438832172
156.76741665625497
155.62610959084995
154.90030063635317
154.4192493532683
154.05364176193376
153.47324696702114
152.7069315633115
152.1802152862389
151.57441143020324
150.9436087330993
150.23650222628257
149.72908099661706
149.33449723159106
148.99988224879385
148.3392077934668
147.76655760838213
146.78906056231412
145.8468467788821
145.28155221025992
145.2258747786363
145.11392973841274
144.9709219086563
144.54829888706487
144.0885987239432
143.75962144695308
143.26807213428205
143.3228047459268
143.17353760373283
142.4035452115341
142.00049658824474
141.2170270004463
141.1298214585913
141.3655169850241
140.95078727384325
140.81073245895902
141.00280539373878
141.47815466988607
141.67237644788963
141.21906507429742
140.05553565104503
139.47028979217802
139.739160407216
140.41475701966505
140.95046434560518
141.88672150721828
142.92875665846032
144.53552580991487
145.9269446554219
146.6996601181035
147.51836265244305
148.5922403174702
149.79756373431889
150.984024135152
152.24958509589547
153.4790404423411
154.82887331272087
156.06218831136053
157.29129453141175
158.60488813251885
160.08021746252516
161.0525147605336
162.05535755084213
162.743622312834
163.46319431297107
163.94566237264772
164.2824730064305
164.34422440432778
164.46511269899443
164.43397884220036
164.5572630195037
164.83398020797898
165.11166538800512
165.48347075893372
165.85696515632233
166.29642770852863
166.85940151628157
167.20824966912272
167.8802156009885
168.4686612128029
169.20076904812237
169.54762488945005
169.60996865793547
169.655026666881
169.48402012557233
169.51544238669348
169.5865508186161
169.67129885533757
169.82738112662125
169.68715198279213
169.67204683401417
169.67026681606347
169.36007128333125
169.26708408316708
169.26237759749426
169.35875679454318
169.32691221766615
169.1646652283985
168.6811088018333
167.89070255674662
167.18167815999118
166.28568253708764
165.4231698735643
164.74841464838522
163.85824519235726
162.98953394826876
161.58899457976054
160.16087822482746
158.75472423760976
157.63417654972784
157.66442196970706
157.7838060447773
157.5216118289179
156.4251264828516
155.18435191124738
154.0013295989417
153.48667728384842
153.32277668935654
153.23389481287555
152.88456450931187
152.2497916382527
151.841751481469
151.37529082028593
150.80292972965145
150.02648217623837
149.26213704049013
148.58534134312845
148.0312205554491
147.67978253293654
147.1478781399479
147.12030553315063
146.97695313162674
146.89284884230796
146.83764198683565
146.26496897820164
146.13124082842614
145.73556403971753
144.95073505314835
144.06692776901144
143.1123777393385
142.1561114552444
141.50355647290078
140.89355230359755
140.65644587505525
140.81445983320071
140.8144634319936
140.3996127542391
140.31312386676285
139.92889006719014
139.72265448056376
139.76123543279667
139.35964430193636
138.8089009747103
139.1119394795844
139.0878219818197
138.89932322898292
138.23886357456448
137.13769482164057
134.9418423889728
132.38719647350794
129.47452354676724
127.35513403271021
127.70274336772137
128.87744042583074
129.97099985357121
130.39319181398474
129.81495965041353
129.26548338022207
128.86681650611231
127.66779662408247
125.88755524003037
125.19285207412867
125.56018098592406
128.00375375000402
129.01337846874685
127.59890216230208
125.63608284060115
124.10097566265303
124.80812557323858
125.81353912484423
126.32290459977987
126.95761395894705
128.4711919813609
129.4218484243645
128.24765546748287
125.91130478273274
122.61286314592357
122.3166347876025
122.94343222163322
123.75943619225886
123.73024157912243
123.06333833478756
123.22552855210026
123.59600781572819
123.95463275462329
124.54380433745445
125.81403185729215
125.54824678606757
124.58133423443273
123.56828818550945
122.10221389385826
123.40939639271369
124.23311866109808
124.30715111231669
123.0656005518331
120.61148174298923
118.59015872754313
117.6984573986649
119.18937127948352
122.21556220048322
124.6863647828412
124.9485017580144
124.92516060934386
125.24081831262356
126.12000633028495
127.35526753461568
127.63893234308063
127.84452790456837
129.04932796982868
130.7614073538241
131.09361182923834
132.0657688824937
131.88361984305465
130.94676471323555
130.48971962459396
130.29216351975435
129.65836031362358
129.04077912854837
129.06962006257316
129.60016181182138
130.02725287518345
129.57347134982666
128.1594585932948
127.0421919744523
127.13766173463162
128.43766734439723
129.54455933244952
130.90846178601498
131.58067209593258
131.82490128188775
132.50035199232804
132.4308318805418
131.66610091172407
131.5414499144466
130.61853431818105
127.7023576661715
124.72764756605098
120.64249389721823
118.1295538455064
120.71825205582971
121.32164155686289
120.73539636632431
119.54959433322155
117.73748968624045
120.53950433513334
122.72857551716334
124.57604003134622
126.2691427168949
126.27927299548644
125.6453505097309
124.94507507182878
125.37939459453517
127.23221872390106
128.79240616751514
127.88593984476783
126.47364221929806
125.68998346766496
126.58384932745447
128.25884042790466
128.07432484858262
127.00728340714312
126.14706462602953
125.73718918195415
125.98919170923617
126.56606988751116
127.02965241814054
124.38190066274598
121.47826021460195
119.58668124703127
119.02416682012894
122.17431902993775
123.45685923948164
122.89106618317642
122.621671749942
124.17179761247655
124.49673545255298
124.3217930384473
123.5767003492374
122.61199854508375
124.58749931123108
124.43213592159626
122.2644072170057
118.98948157956214
116.51649308409723
117.41578807620294
119.7150155429553
120.64594998719231
120.62113321056339
120.69516074907861
121.87821391397458
122.73526837384972
120.77277346226415
119.05603876944491
118.33310204688641
121.07701608171246
124.12579125742009
121.6701272160049
119.20758128500607
118.04317062661669
119.51416208173517
123.76163370425303
125.34383640226774
125.71537653542403
126.2578193864645
127.2858401256796
121.42080248729606
114.89602179393425
108.1557634972309
104.77314317487641
111.69477277477253
117.45189990643621
120.73547756702598
120.76968109973113
120.40923834737228
120.41475277177457
122.86026505929667
126.28922762359853
127.54411312129139
126.99408735117728
124.29420232246952
123.2405749636872
123.92738561607324
125.71193950532701
126.53918343273845
125.4773491942226
125.16550422284138
126.55738834203024
128.1708482792912
127.72229107254952
126.85674266435824
126.49651918706837
128.1606820164823
131.08595309815772
132.1045190106737
131.22660330652846
130.62154941381718
130.45055901563038
130.52672874064226
129.8538551538042
128.3973028553401
127.25515331776057
127.00579803716577
127.25785789348373
127.18432996700369
126.94239502598398
127.35628526774934
128.4892136772602
129.36778075254563
129.51508714985204
127.81787504198715
124.72373190891953
122.58369759998234
121.85446001585629
122.51941903529756
122.73620914411241
122.2683150458378
121.48001407024104
120.12754289731802
117.22677038348776
112.24226029595113
108.9502997425315
109.5532169573877
115.30572055908745
120.38198830693047
122.66647702160353
124.64317897346407
126.75672294872737
128.2467857279084
127.56219725307453
126.06147291310349
123.82103028596967
123.03974354753402
123.84537373185866
123.91656620579715
123.67867066248564
122.10224632034206
120.06388786460708
119.20880613609737
119.18521562587699
120.00530152020812
120.42643600682052
119.88756104831195
118.92992031993514
118.53987429915361
117.58632214936942
115.4456265919245
112.7325327539075
110.19066799066947
110.63719088646566
114.25312310241985
118.03616505361644
120.83163960994017
122.64957142329452
123.38744044133124
125.59926869216918
127.67619168193482
128.18182040218647
127.70566599003234
126.08299514957984
125.69144142235791
126.6726976411479
127.02675639289265
127.85195589544412
127.54925388956613
127.97218075900975
128.1371323648586
128.16077069112222
127.87059377012746
127.84380389579084
128.5474069448903
129.78224886303042
131.12057031148925
131.77267104432326
131.2473781945303
130.11352299516864
128.03828534331623
126.7061475010133
126.5601884806832
128.04349510421847
130.25993890985075
131.90196468626232
132.329450003177
130.94464705498572
129.61328919108638
128.63010959144586
127.65662081981347
127.49511840899369
126.43312657684169
125.62769050973593
125.69766194352803
125.43526411241776
125.93025752470007
127.48610499280866
129.86961581346836
132.4637120321473
131.5178811278219
125.35430762436232
117.58495219608699
109.24060042723788
108.90690728675368
115.07423349027256
121.3567084985118
128.01672254311762
131.06895748204516
129.38305628471832
123.93331513735785
119.22924780648461
117.85219654030972
120.56316073953175
125.67637802473905
130.08352778119956
133.20603538844892
135.41850263607716
135.4412179790013
133.79552302771683
130.7214762688025
125.33922896990907
120.47037538458974
113.83589648021074
110.59260321926497
110.17832568226393
110.99881570193877
113.50751383487442
113.38611879000838
110.71496094057385
108.421166285441
108.21771821343872
111.8724379285053
114.76347935978083
116.59266928659129
113.85450256678112
110.01942250670379
106.1900492840702
103.0325042405368
106.43217329656053
110.26926473715909
115.328806394298
120.23189594373669
123.24957084486616
125.75218989303897
127.38691864203969
126.93872678412737
126.93887025012822
126.86664780366029
128.03289655833996
128.25908628732924
124.97521221324547
117.6936609677256
109.65226337474351
109.11314120778118
114.33779537551932
120.24587049184768
123.60074070965953
123.27697005603355
118.12655773301069
111.97087079519328
106.57357343015148
109.13851122835624
114.69622186175768
118.5948745192986
119.66795775833853
117.28709338970302
116.58141000239557
116.51427535542275
117.47120641518863
119.714474509748
121.135823694174
121.87678872682075
121.59877990476292
121.35867311646037
122.3263847533785
122.20069679898566
122.3005698064183
122.37001459887738
121.59294740454312
123.02458076131249
124.26171653302839
125.10424325867962
126.54482625071373
127.6832274621992
127.98009758830213
127.16489598837933
126.36761181087799
126.44916535725218
128.21421839064988
129.70419501187158
130.40341383467802
130.46301936755088
130.96391013473925
132.49429377662776
133.91257541862106
134.12392164497965
133.9738826255885
133.76853291141066
133.9446564580581
132.1762515364427
129.4146957120475
125.25070295817437
122.78204467729107
123.33832260222614
124.89314557666248
126.41345890647649
126.97545334150124
125.47861933467456
122.73007334386453
121.61651161475551
121.30919001633285
121.17171489172487
120.3775179990556
118.66081641112781
117.57278094228282
118.29052218277403
118.81514071945021
115.76716723602362
113.57615700103064
112.3505508277601
112.39382131088273
112.53408378031203
112.25399090666346
111.72499068267923
114.85582337447882
118.43472254647472
121.28478549453975
123.6119561225474
122.81401976966828
120.90960322630359
118.74403996071909
116.83179090745696
119.00080558508515
121.2865894236506
121.09277174378208
119.48613499109891
118.43416128903529
118.56275122074966
121.05030292973294
122.99540594956393
123.95728482596502
124.86004830300297
125.80801918098874
126.08812100928137
125.69895109431879
125.54087737295959
126.36617373133797
128.13481061713634
129.28029722608127
129.72062946616785
130.3506579920898
132.45402945462592
134.82773939927847
133.88795841922675
130.1808154572608
126.27186303908371
124.22850001463635
125.1679177834992
124.77455403710198
122.83349644067943
120.17307165603476
119.69543833374628
121.28442045773315
122.86904452967667
125.1246509440943
126.71973070700056
127.93261527960571
127.74126039017392
126.58322063284959
123.78702788835697
120.4691695402174
115.13446491869925
112.36938318665668
115.07128050611173
119.7718307121906
124.56788001170433
123.35231406271605
117.58223967706728
112.03618685862406
108.8088380409495
111.68717104577372
114.9384398909056
117.36245462522339
120.13699525935114
123.08728727956958
128.33694849606113
130.94033627663407
129.41807730205875
126.68866479551139
125.45728635180971
126.38537770893848
128.26244905097604
129.37606822272699
130.17493900840196
130.7600901451983
133.10199579340417
134.50478373705414
134.60010077354406
135.23267126469824
136.90780613913054
138.8936097965844
139.8919566497976
140.3993451370919
138.79530912705002
136.41783568115457
135.1234934096932
134.98992588567737
136.08796079139853
136.50778641261795
136.06993439221856
136.04273965363438
137.56203930866036
139.9908409319965
142.31447220612813
143.7196977185775
144.22895478092155
142.647015473226
140.7360328113152
138.51421859387642
137.5423419644285
138.6891058326274
139.32874577374207
135.68826555376276
131.1154576824668
128.00610462444445
125.62856480493262
127.39392825559383
127.43854831651963
125.64372196064073
123.42893959609114
121.71189833132736
120.9762300523558
120.76572409527806
122.29465365135674
123.93007781216551
121.9665143268066
117.24304907106952
113.3884028763065
113.34929902660797
119.06768054635445
123.84582447044755
124.11534322411757
119.02275341237714
115.36059339551707
116.95580774225846
120.92712419108449
124.13282756568698
125.88332229375527
126.08920237501911
126.39808783039362
126.678247841478
126.84722655447399
128.2175903298977
129.88749190046914
129.06781612352844
125.55106993815443
121.92202454500222
121.01036112210097
125.85823342423646
131.32175586447332
134.11986668496084
134.78973390764722
134.86347213945106
134.8370039435335
135.5203607009466
135.12508034637167
134.48938725041234
134.83249604076917
135.80378580085585
136.09867620342135
135.96773465673303
135.8343181958287
133.9268770056078
130.45021812802062
124.04411870872384
120.95448931809216
123.42855475348013
128.53979880672594
134.03901885415743
135.39769465253178
135.90555747033363
137.53215641528067
139.0434077768346
140.25974922208997
140.2768360832649
140.4322417876953
140.54159559973834
141.544386094029
142.56920265207168
142.36090402927988
140.81223276181265
138.96731854614248
137.42709025044195
136.95992774081458
136.7608521511213
136.31867067695694
135.8520375722198
135.6687727187913
135.92871932306855
136.033722188904
135.9322028429325
135.13369483624746
134.69684779305646
134.24315550102907
133.0709349554329
131.5193158419284
130.44684774877447
130.6309101645939
131.47961680811412
131.36415270694656
130.03685460945826
128.4565594237248
128.60786005559595
129.95322713810987
130.6062922763267
129.75741249611866
128.14123503610006
127.46887274839912
128.3634571027231
129.6281235934919
130.06546194533144
130.182647838251
130.65575372897592
132.52046082221966
134.41962827123984
135.89140826347372
135.49612790889873
133.62059159055383
132.24099011276485
132.00762115415785
132.56245064005867
131.82590298003396
130.63093644365222
129.6272703791509
129.29525388961576
130.60126265892106
132.07350515701464
133.74391665801534
135.90839157707433
136.58219743618088
136.50673630635882
136.32445851899473
137.03060820313667
138.62508864805136
139.29880318656683
137.15326891616468
134.72649779387527
133.26189733762843
133.83544823398174
136.78169892278387
139.9118539385136
142.97888456580387
144.99425034873687
146.4896737393159
147.32182250969538
147.97680030758025
148.56539331461394
149.2367136403124
150.0960866682181
150.8366245878137
151.77635466320083
152.823204113353
153.85836590927863
154.99714661864607
156.44617967489643
157.58847569101098
158.80328172013492
159.94324540000773
161.1510422925474
162.35602508233004
163.252567194111
163.9094009118021
164.530247911042
164.67981989697907
164.68106096631058
164.61978645650666
164.40119288401564
164.34087210673928
164.2183090062165
163.91547691948492
163.46065890241704
163.12906418084398
162.61833759894364
161.99500712337826
161.42504371997103
160.923600422055
160.58478693298292
159.89385633848158
158.90468272125108
157.67001199031955
157.3108887784352
157.51721987267825
158.05309876630795
158.85761782654237
159.09776538489
159.30721605963123
158.98369131454746
158.6472001603122
157.90954016163656
157.0043811021099
156.5316672293538
156.1754681506481
156.37593811189046
156.63361929893966
156.59766977332612
156.9591214176216
156.9004188560722
156.9006346297441
156.37604265720285
155.83195797429184
155.27362252778488
154.346081494482
152.85363199307068
151.20147079461293
149.96189007393664
149.98828222868428
151.1015238411267
152.4814088868766
153.6212930066467
154.3024030638926
154.96113643455365
155.4475762294993
155.64635591048125
155.36018307931283
154.79074103583662
154.41925462596782
154.41836603589203
154.87517929827195
155.41653081473584
155.4443821990169
155.64721665231534
155.98779251459382
156.40316367953986
156.57644427057446
156.7801418543454
156.778381393551
156.6006202924925
155.49887648413454
154.24685856784416
153.55067927642284
153.69418773748768
154.97211906602047
155.9724461184905
156.04498227738972
156.0162773178477
156.25085760917307
156.7415805204636
158.121466178051
158.83374716845688
159.80386261716362
160.6498313653438
161.73413061733402
163.43112552526705
164.65947097049255
166.29234099549433
167.40691583985205
168.13671326582408
168.4377222956809
168.4578072970537
168.00873295068445
167.8243094987546
167.684581717313
167.66850092475377
167.65373932004414
167.7501403473266
168.3177914828456
169.10670921130927
169.70495278656347
170.297957861729
170.73842856466777
170.99026754043072
171.59501170603107
172.10950716844079
172.5917852205495
173.1427317820444
173.37382461533682
173.73013935746292
174.0684982512609
174.15574804168776
174.31564303618154
174.21468317477743
174.14813141263377
173.87380485071063
173.49575940386632
173.33289279957356
173.23710347535942
173.3004449820157
173.29937384717815
173.2363181553685
173.10618187102992
173.1059090907599
173.07236716531082
172.7495450900763
172.52678394649436
172.268121447168
172.17098831713466
172.20397501512474
171.78770343617782
171.40470768251782
171.11779668515416
170.86460388059976
171.11775883608428
171.269153566677
171.24549679395335
171.18059984457284
170.83933407902433
170.61371972758502
170.0817882661912
169.4005965146875
168.7462121849411
167.68966295543112
166.73989332534848
166.3151685586092
166.0125867418674
166.4340032273226
166.79941527507947
166.73667312965813
166.42543272648078
165.98369042238343
165.45649839086838
165.14768485248283
164.86658179031767
164.46510702245163
164.13256407023738
163.34375827508805
162.11899030013697
160.54668009302026
159.27021972328185
157.81433781094086
157.0129689560669
155.67659320462604
154.09094120709176
152.49563819746223
151.16876837770266
151.05373003270788
150.6848439774418
149.95442791151413
149.81233007742523
149.89324987466316
150.58349829594957
151.7302094528336
152.21506505725947
151.84072693891258
151.5523657408624
151.00530817362122
149.94429470169484
148.29914054707191
146.0651587786758
144.66271487927705
144.47818626801015
144.39988713337755
144.1289882514231
143.77371508040596
144.09423573088856
144.4056610178142
144.13842253851107
143.7749239757363
143.11124383758278
143.27802000519503
143.35555074614797
142.68609902172295
141.96163048184664
141.39454208848633
141.50163037777054
141.65874804498978
142.00651499465187
142.383636259565
143.55633820499185
144.2653775724874
144.15957440905308
143.45973437738564
142.71442982098915
142.49283408290228
143.4079159526308
143.35447560445175
142.58839149673653
141.5705813863579
141.24366613900668
140.61887597068025
138.25528770640972
135.49895991574883
132.63746802652338
133.50249204488907
135.37810563731267
134.66349862431136
132.47535209057392
128.87546443769963
127.50110692306998
128.15492009742823
127.72101851375594
126.61697136688036
124.6868470583677
124.82224954753325
125.8673848902767
126.68125769436963
126.14227158466561
125.15164341067675
123.71186393322269
122.89493348952625
123.28181398824321
123.05878691638868
123.41572257002477
123.11904862050301
122.98900703322857
123.22564741651834
123.17523510487467
123.59194129432011
124.77751637255321
126.0638170566989
127.04290042218375
127.21068547718701
126.58760956490964
126.27743476416589
125.68998362593209
125.36283354146167
125.87195096708577
126.07697013459624
126.8284378092354
126.87455217691254
126.41977394987563
126.61725937585892
127.52102617912173
128.76089920152393
130.3426140977633
131.88701279788742
133.41149297564763
134.20315490168295
135.21042092024484
136.0161634045404
136.61265008614322
137.57988275834134
138.4396297825336
137.68683023819017
136.7829113541688
136.02029186147246
135.40055402204612
136.59530288986537
137.59365889280576
138.0935039059358
138.6727255889369
138.56876561071707
139.23830667224956
139.90734470637352
140.5942563472987
141.94629406070553
142.85277010815457
142.87983916791336
142.9375221026658
143.04585970626636
143.9052575813102
145.40119053611028
145.96982421467766
146.10299128080405
146.32279221799826
145.2905840845071
142.00714027018023
137.69077448428706
133.00049096039623
131.95918537310104
132.6628146322822
134.7384303284524
134.92480271880763
132.59557285347137
129.14794191996455
125.56512780377776
124.32039044902191
124.9527415639993
126.21521150143738
125.82318299587442
126.08572783591464
125.7107725830197
124.22379722043195
123.66683115962783
122.5674436505847
122.45812812839054
123.22764275836961
123.65970369703601
123.74373933831038
124.08974845510846
124.75201497909795
125.1006557012105
125.78753004984574
126.37985553299889
126.17363532036293
125.43269000564737
125.75487528370535
127.5610298144916
127.80583127584772
124.8608038087427
120.45638186588107
114.86468920340417
115.01467174569254
118.40367674849387
121.57603987336341
124.3218711925748
125.78417045244987
126.73188269889192
127.34016593140962
128.51523024176606
128.52023385841505
126.5528004463387
124.78119471113241
123.03600570536328
123.246537463068
125.34226147650818
126.43820352382662
126.73950633315243
126.97796637615826
126.33600286632928
125.44997515790155
124.91805272571409
124.70715046579686
123.96806969204914
124.15935383045284
124.7556009387251
125.30176946878072
123.96410875836823
121.92489375662072
120.42054599634058
120.4847414082715
123.1316094752342
125.83500169071459
127.7580317968256
129.343383284389
130.57757555953697
132.08030190523303
132.99265812229027
130.33609070909063
125.36952906247932
120.8685296294174
118.85781963433952
121.49450562756626
124.42339386112602
125.78788283326121
125.80724534111819
126.01882049182896
126.80453981591796
127.61130974023031
126.97121957288212
124.7577517986172
122.0686071735865
120.4338990042373
122.02761901882991
124.73498779060512
126.32662412739725
126.45854629071897
126.12664523521491
126.42172533023933
128.02666974106904
131.42236050492482
132.6157407782549
131.57349423083872
129.54961914899036
127.9754914204206
129.0925104942198
131.38564426128983
132.9894969851047
132.4087229315944
131.0414434037197
130.27239087104633
130.69434014353106
131.4176833335787
132.24949743875615
132.7220808618787
133.46725869064667
134.21799549439285
134.5925277893289
134.7704429034733
135.0813205856699
135.00558663465839
134.93017338802235
134.95530483875135
134.90120719529122
134.43747623436957
131.9983667125651
130.52315402705244
129.7662384554032
131.4856988754614
133.92243002303897
133.1986128457535
127.83745918033412
121.15554892893134
114.7570996506155
114.23646987309488
120.96485471685875
126.00295911347112
126.58686655337954
122.47140350330136
113.90135623742609
105.65769445399016
101.95006844243002
103.1416765724601
106.53684797369002
110.06335594831738
112.5605295671237
111.97919420347527
111.16776872852351
109.70570378985539
108.34315813652387
110.86369130087131
111.71331330378631
113.44646032326177
115.11768707624904
116.66335704447127
116.92166942533213
116.22108778671964
116.02859819088624
116.41367290193922
116.41435545804647
116.13675035767987
115.31795835924459
115.13623455779063
116.94974494290906
116.92913922725127
117.51303842668702
118.44406640581903
118.43154586081656
116.25315170818202
112.44050579718059
110.87156446855717
112.80136431235569
116.77299844542762
119.52110733913979
120.28958083671247
121.27772483350947
122.06819469967016
120.37178914865481
118.03034010112906
116.16447067212192
116.41640527011477
118.29530383943775
118.28838384212702
116.70373532512768
115.48910391514077
116.36852925356892
118.9441731063843
121.04184541521758
121.82216470870253
121.70857736615626
121.44779855984785
121.54540020136864
118.41667002533674
114.19533118207195
109.07588962275075
107.44245782362657
112.60771765998116
118.7086767332437
123.99152784307255
126.43074631387414
127.75313597356048
128.7468839064769
129.42522852251568
129.337408346198
130.1406110571075
129.42036317871174
126.61613332706253
124.91717120690781
123.79400691773492
124.53046350262618
127.13294424610423
128.00932485551346
127.49564674387432
126.37238736092084
125.41878961022783
126.01006435897466
127.28280919462912
127.18900198238394
126.45309195444939
125.80070596652615
125.84599260015301
125.64057035198562
124.91318234987503
124.40109814556081
124.62012948015168
126.73864001928114
127.33663925894382
127.71356287614955
127.83527493302783
127.92124639114563
127.57942768116678
123.46223258048016
120.19930354094942
118.98271288377198
121.83148603882847
124.04252986478686
122.78478264851958
120.62379635487773
119.12616416295171
121.08518180559632
123.7528467035629
123.41829041154884
122.32669689608782
121.81871313075264
122.236296558766
123.28422979782282
122.29180922051624
120.68651887590757
120.29208774811941
122.79868781353619
124.38826098226062
122.89175757783687
122.10039391760614
120.84076597955662
123.49078421290913
124.6220732052217
119.66780980658727
114.56898541399495
111.32287726019976
112.79966921687294
118.79408623821398
123.36806753299291
125.423567313258
126.40208005498071
126.9733489496274
126.87664359362583
127.42892878196193
127.022211487615
125.83327235985018
122.90239654008232
120.24887363539565
120.08055474753478
121.42743596233059
122.52989195847024
121.96400969964687
120.77263326831219
120.56085605909627
121.94879369158836
122.96545897211185
121.38564960926512
120.77147661489516
121.35403186732256
123.06419206049647
125.52357953707005
127.21552572954596
127.78950409666925
127.14541799906866
125.73413338060973
124.20067795175422
122.79971449112344
121.71761844885232
121.25342863776874
121.29259150702086
121.53022070818244
121.96371577821385
121.57290877602145
120.77553104452828
121.45678049403162
122.6945502183855
124.89666519447519
126.12186592037303
126.66824160107957
126.19045389664488
124.97337325151211
125.01888320517028
124.6585482707043
124.52791826518555
123.98013522166268
123.28979374294265
123.58848451560398
124.98481389085529
122.88477409692868
118.83495140112126
116.12384246900555
115.66313640780845
119.44451391735193
121.56093130082377
121.6807649948264
121.22687731525744
121.36434383095308
123.3978098694324
124.34082519376116
124.33330185960497
123.88595972802139
124.62638261752954
124.22655163460993
123.0060325960958
121.7763084036713
120.02080974899945
120.65242113502596
122.74745786071297
123.82891595980233
125.12924984360791
125.49394096460873
126.04833897632443
126.93739939740081
126.08504602556681
124.3587034785147
122.37008630823078
122.7174287402713
124.65237066137253
126.37017631282306
127.0306125707872
125.28109894234825
122.68409893038849
120.85129982692305
120.67713344689345
121.90716567873196
121.9352620435698
120.67113230772314
118.5727008946096
117.34303220541678
118.64871764003412
119.82802021197497
120.88182298963262
120.97350778640403
120.57875492551902
120.34713201458842
121.0577061060788
121.51930709484344
122.09200680134514
121.93625376663421
120.9209088363586
120.40937046402865
120.81147650770859
122.41343430871379
123.1176606706346
121.89576121529802
119.3164877083047
116.95732950739024
117.29070020632824
119.51588245986828
120.73429725613923
120.14806122607
118.94211718745522
117.78783918884061
119.43972797721601
120.29120388413148
120.56053702952062
120.83629113673874
120.65668337186116
121.46638513712286
122.13999344183752
119.73027222644647
116.90251352593648
114.20978487646416
114.29064691155627
117.54573434331073
119.2607529461954
120.00204110763949
120.4282016044502
121.32427114737455
123.2978581736595
123.9631872141317
123.47141793390576
122.3687663563868
121.99667914347239
122.893965852813
121.55835536804307
116.92290923378687
114.52613948417945
114.33373021180937
118.67973422728564
122.64581195045888
124.49166619512803
124.49553126803613
123.37079759788392
123.18614247931204
123.64069720063283
124.69099795694716
124.76878402057427
123.21427994518669
122.19281964610938
121.48359131351003
121.73275691826464
122.26320989388847
121.40413402412614
121.4541205852367
122.2502624662669
122.82079432380911
121.71017930931684
120.39028009488582
118.83780135756787
119.23515935767678
120.80085529124327
118.7802476850391
117.00183091364842
115.14099601796816
115.80015565465581
119.90691648006484
118.94549432537067
116.60712733119868
113.79761400228212
111.6819380316631
114.40462988565844
117.53775745145253
119.97961056184296
122.41582676674054
123.41531081836145
124.01714036757446
125.02904163632824
126.52120143415573
128.28323051336906
129.64370641758825
129.81247460418808
129.78833065087926
130.30513527420942
130.66044143569545
129.233724940972
127.4045102418699
125.38389543408348
122.37854555306168
120.32989826454853
117.44980133099415
114.84272030949406
113.62563804768102
113.15310742267295
113.29109812547172
113.54751162525118
112.4757176426991
112.03580454145155
111.3519857119434
109.71793857727243
107.72588385183334
107.11365187302762
108.36245853449137
108.95276796362941
109.40235749005251
109.3099326752717
109.06578868642792
110.48015585813222
110.33618495598746
109.07805553671899
109.53102156180015
110.08616385190251
112.66380206187557
113.20200052537432
111.74038073610471
110.78021926684609
109.89612110652828
112.01244199545184
113.93028935253257
112.5546923589673
110.12986725586502
107.26998012461247
105.24959718364381
107.28918986420067
110.50621089414938
112.23898982367051
112.50102493268444
112.03644053129554
110.66928882852639
110.63516259119801
112.19969351543152
113.94892569552471
115.87949944997432
115.794301433598
111.85210666474616
103.73448842755434
99.56990901259759
102.43556942214998
107.69350005415166
112.71402888086385
111.59060489264793
110.42823259536104
110.07851176210804
111.88544169992326
115.19091320667867
118.55748935716788
117.55629263405348
114.8373131876718
113.40239519044391
114.06244145372314
116.4027380436281
115.46147507547504
111.49868468289976
103.8295162875181
101.56506835400448
103.47827303186969
107.73246383360264
111.51446777269149
110.27706831403134
108.53631572090747
107.69245817545746
110.48263521393105
111.52044272205134
110.62103642091998
110.42405254095476
110.56787925198326
107.75649666235178
105.54878256862435
103.32499240686761
104.9763915209062
111.49341052368263
116.54541936328053
119.37280187828537
119.54253793819748
114.50638381093718
109.82494578806472
108.54634512064797
110.76913088542794
109.50387527418891
104.25205000689189
95.97167415964007
90.66185593503117
100.10995182393673
108.79278524180653
111.69769454785566
109.76685644141214
104.69145846573525
100.93774696649372
105.71174741913003
108.6981546695297
110.77202977666524
109.9482717829479
107.3121445541979
108.60853284181204
109.66668562086333
110.16579238386316
110.0626334592603
110.62594300317187
113.67874662860027
116.31378119333013
115.1636090512154
109.02663384260461
103.51279085073847
104.32708270733686
110.13156039291039
114.5142006235579
111.86778184702453
104.81643152172599
102.92428251846417
107.86574372476674
106.85037290088796
100.95988382750602
91.90327215663585
93.47810297952145
104.36859869450456
115.08811254226693
118.05133760422682
114.05607450163319
108.48624296052165
106.68817865598304
111.73835018598484
118.19985244321812
119.00237186816263
108.0557316788686
99.65985012961339
91.40058782037278
99.04392163901927
108.62660705870346
114.09391725545517
118.25282379364924
117.84299852266426
112.159634466306
103.62344525692183
96.3759928617405
97.76064744317772
103.12215938889085
107.29936843463541
109.08780104711946
109.73895061212524
110.94947050498958
111.10963888372673
108.22377239866127
104.77247826582773
102.87359470411312
104.079171058594
106.35634639330502
106.42136512567035
104.34474253748047
103.28387624423664
104.35324490053523
106.30318118251049
107.58193345265316
107.74856657179566
107.21197856000671
106.27523579932725
106.32899601681555
106.45250120733056
107.32332247271648
109.60448811375983
110.09452953119509
109.68186231212715
108.87187404924785
108.36363279125703
106.90730347092143
104.73741265108605
102.9718423757279
103.59076265286866
107.27075493343165
107.98731567825017
103.8904391135149
99.48971828361279
96.5717364454942
99.4906565178839
103.57829549966146
105.41665146021387
105.35650629739308
105.03819314578398
106.00028059089476
105.9937969817968
104.66204347739003
102.78248123168521
102.24013682435022
104.50318197981139
105.98852894882431
105.34673815997941
103.32818807903777
101.88521832308099
103.79948576218122
106.55846537470529
107.79953065992011
107.29201191641138
105.84035464446795
105.29892713644827
105.55688864879077
106.02849197897866
106.34545185746121
106.12023844854667
105.0825110970736
103.86306319839589
103.36762100289835
103.03710986890717
102.30286199139384
101.3223306546219
100.32358227685818
101.92837040284046
105.02920648766488
106.47190163505908
104.06356881519098
98.02580616240982
92.65854291504574
94.2467752309084
98.42111993295318
102.86217478573695
105.1594463392024
106.10492492647747
106.31712780482066
104.7968223698824
103.71499526722326
102.29628409350575
102.15436312087482
102.83276159102336
104.31454286926207
106.22168770660733
104.94511750968627
100.69814498857208
95.69148374133056
95.49095789749633
99.61360376168847
102.38136605903092
102.43339792210425
102.6868062746524
105.98683782476442
106.54698542874492
101.78773140327024
95.6079193411446
86.94598688726805
87.90414572608034
93.50510321862951
96.68549988752335
99.72828025819351
101.22324049165758
101.45656738815644
102.61695264967501
105.62410250898812
108.39067373418895
107.25206954211015
99.86327136624782
90.21508776119319
84.61996103652275
87.94430618617146
97.32683102728252
103.7216645477787
106.2245757471822
106.90019209401436
105.60537855612826
105.2330360474454
107.66861130245523
109.54600138337204
111.0192029569512
108.86056917583174
105.59830092160902
103.88702688917364
105.59311791812496
109.06552172216028
110.12527352120306
106.02088509078013
100.23486326756517
97.58543156500222
100.71862598177252
105.65648558644132
104.33195518597853
99.3463369866855
94.64646281502694
94.5786842018414
100.68057973935873
106.78599926565923
110.21180179274394
109.59095638780937
106.8518646010009
98.5963421735004
89.61738729214835
84.85170240212192
90.60304003556317
97.7041139930854
104.53405836330836
107.74088680349139
105.21003812681508
103.68574404249625
104.31989760675523
106.36488549401831
108.5248247392231
107.72308351165205
104.00872774133495
102.75068415389744
104.95312362643048
106.09893600079607
107.35949435162962
106.86938969792583
104.29985583702498
104.40523033843823
105.99922032338817
107.51626650196123
109.9942333043866
111.14415727889867
110.21042142532508
107.10201554937095
104.59147357582448
101.43536786873757
102.73405166978323
107.65660298566227
110.37764283752851
109.30414826943297
103.07812664052568
96.1307812641882
94.88103089647468
99.75964221520667
108.22093254245202
113.9061151687455
112.36773007087172
104.2620041248872
98.00446819541526
94.77853249904207
99.83609440680732
104.9847054022166
105.99079584640981
106.01037338171156
106.79111654875229
105.75044204055672
105.21278383857012
104.72982284408255
104.54350075923568
107.22410917235266
107.57278880724948
107.16044033232771
106.0822141809931
105.28319965751952
107.55513335261175
108.49119986932386
106.32594522385104
98.94814060460277
91.43273536248283
92.29630191711458
97.8580077582623
104.98176569243725
107.59101418977095
105.51971707399245
104.72458281074461
103.64531186586387
104.26753014043635
105.02334204538579
104.36905856956228
105.67194991207833
107.00926661183718
105.02680658312094
100.82096361182442
93.46278131744019
89.42634447765084
94.33294962374242
101.8456676910393
107.49941856386296
110.15695038659696
106.47644278798727
98.75309333631657
94.14541487591828
95.01355986225366
101.54689734019648
107.37672827510818
106.13393430557082
100.80312327186921
95.99171591572603
92.37325899719887
94.91010177839992
96.88061150804232
97.91167651097442
99.39703600488937
101.52879871642337
104.62566996810935
106.33796492515232
106.1817817187356
104.61943778761662
100.96223184218867
98.92976542572767
97.38296483710492
97.73193175276289
99.04253834937965
100.40517141741884
101.17260839785001
100.46241690358055
100.77289825601285
102.11463084606818
104.08947028016891
104.50450952636433
102.55649909200096
100.81135009495164
99.83473135954262
101.63498251538466
106.50182108111403
108.45668837534619
104.17446029510364
95.43743138140054
87.34306356766753
89.43837774149962
96.24420932130867
100.79287918828855
102.9876048549441
102.6920711360457
103.69441889930376
103.80866706746498
101.66545162087944
100.01135303633926
99.29447455986701
100.26791361823516
101.08760887518955
101.76525317120554
101.18487945823384
101.8569716658909
103.80276918585749
103.6461741996838
102.38909435328272
101.48870152001213
100.6785040115018
101.91522008197066
105.0782860202535
108.41217455233718
110.78247750578284
111.27867719000405
109.40309446954372
105.41538071173396
102.49510090426988
103.09365028089732
104.49460571600747
106.7417196223816
107.92563556922543
106.3450646558488
104.06224212829534
104.21761092890901
106.62523751423784
105.2460486584352
100.45921700351732
96.47029726377316
90.08774824385704
93.48119952922099
98.48349672859653
102.59735916910955
105.86971060540174
108.96641767397382
109.74074775701013
109.94551438763395
109.09860845539914
107.20238151230181
107.1440056428552
107.94367021616135
109.43414814354585
107.87026283583818
103.72393310816123
92.32976444800578
85.14956854368819
82.05759517371007
87.63876881665894
94.42390173936523
97.88315515363684
100.16066404085383
102.49656234660254
103.58185369598445
102.48506245669284
97.23139938436935
91.2684085854055
91.62911797762489
96.66225287615043
99.71699927606619
99.94075624565984
98.07154815019025
98.08370001043797
101.56439596568681
105.66794340692226
104.00546690785715
97.78611493881449
90.29412208935054
87.78649173200037
93.42732577358242
98.46023864064593
102.55048452709632
103.59887282235452
105.43369294883658
105.78545656853443
103.08330255145025
99.72690276946426
97.4297580561335
100.18256172898717
104.09886418513226
108.31763694710904
108.31474021014158
104.76710011591217
100.50865363230012
97.2578843693055
99.43317228294586
99.55984838803094
93.82754287890897
86.48781119950793
77.24731559986834
81.10404907691503
88.88485101009218
96.76594358739125
103.58026677025727
105.85442308934446
105.74921057226273
105.05202856781312
105.552393137437
106.17800277637518
104.27680641782864
98.54117335456247
92.6403043803662
91.45787830799676
94.28211885622905
96.4799216362445
97.17089598996706
95.59845109747245
94.13910616175507
95.12748457970686
96.1125038389755
95.98715618207756
94.58359435466173
91.63471158560274
92.0301380674135
96.17397060852817
100.00792413934403
102.73698041219713
102.9043393136628
102.3605701398247
101.87702453660995
102.16899067606211
103.68808676442357
105.21411267662452
107.71915421598293
108.29015459280636
108.7866435292728
109.23904680726244
104.0811297499484
108.26847321331539
112.00372673816901
118.12931124830341
119.79209170721053
113.41369299497745
102.8993274746028
92.26894249909127
