54.71764132217654
55.17330164858371
55.393086959804116
56.753641825270016
60.94622601467684
68.68277677198782
72.55746455255216
75.75372430154192
77.04908081718105
79.32285097845715
81.16858619992088
78.76494226559166
75.61630762783969
69.77705869449905
66.31868018707337
68.2496401768757
67.16827203166835
68.567344574345
65.72549096287865
63.82654929967186
59.430083595432585
58.023475105261255
58.60601799844127
63.04217282339857
66.47096671936492
68.41833896332139
65.09255070324829
62.77522417634311
57.17743781500816
59.186141630211594
63.19303552364132
64.17946155586343
61.94847459030002
64.0215730109686
60.77350191506166
60.02742864852521
59.08872380790072
54.62950924105669
53.18603512493573
52.278683549203485
51.884208034100716
51.412089312622186
50.74738480338285
50.855023557929556
53.14376158334465
53.387298433635216
53.65612582857573
55.306316589807146
58.26743539568666
64.1629798007573
63.97985823622183
63.62267678402983
60.13302263372166
55.6243333904912
52.07460671553225
51.151051668324435
50.733694161396436
50.85081771652368
49.87540875533773
50.389585196176746
49.72416340396469
50.044597191530784
50.79593342480976
52.916117766283264
52.69728876206897
52.827784715971944
52.23047481478147
52.83103533793642
51.56584651995504
48.989767186994676
49.47005143316875
49.622010761040166
51.606322402194586
51.56976532332173
51.5123532136757
50.561746281565746
51.53266042839534
51.83633777121859
51.01148323264172
51.408488297664526
50.627791340936575
50.223025322072004
50.18461301508097
50.46739253382285
50.66041439738842
55.043175415095924
55.57504406624391
54.177665006016106
55.290733466140004
53.20547611253486
52.35231487347806
52.095095158389206
52.676092179459026
51.018530569546066
49.53138911273513
49.21149278232101
48.97847799450631
49.4916899966467
51.15485958770307
52.007288119595195
51.94348635637062
53.04990320869801
51.51690510837702
51.967083752965074
52.665326883153625
53.74038300018933
53.8517019065924
55.67162675668339
54.76377705872806
53.80438647127519
53.84824632650632
53.3959901452133
52.73870806559406
52.449174393484135
54.50604536980471
52.564241258744865
52.506524662565454
53.46307283241768
51.699351464304414
51.76879106120338
52.05839361891241
50.752490108658186
50.13268917501802
49.384843635517285
49.528244508030674
50.625938852808645
54.601674190462
54.6293317109407
55.46752830143011
52.18420262100559
52.99376210655728
53.007321050174795
51.593386456283405
52.48356636632837
52.709464264909684
52.15502156840646
50.90075932231463
50.08209603897086
50.72416692389968
54.02589465726286
55.03717728937471
55.630258938681756
52.191753076336546
53.75781877170396
52.704650096291836
51.97205736858922
52.0477226360768
52.30026396584483
54.57098028504633
54.66765490075579
56.77652552744714
56.16826475694588
54.7985424084038
53.79926928491782
51.57713453349334
52.972616131578775
53.112054722864144
52.37634643120179
52.32233020517583
54.0361671933699
53.21618404130037
53.73677281699806
53.26715599247499
50.43811297648805
50.318918192981684
50.05268180035207
50.1941556948449
50.43231946297929
50.33896998753875
51.02708126965329
51.81977682279302
52.30909839881625
53.90710451274625
55.206344673756035
54.791481809301224
54.62570202612822
54.18886826137477
54.25457327199046
54.7281630661296
54.544550713058946
52.93307587572004
53.035183141092546
52.0933938000455
51.322929169917494
51.0721654124975
51.36367732447499
50.819520820349624
51.653848888317356
51.82934440507054
53.1194202350736
53.64187374737926
53.556749355008236
51.81331525236978
52.09141990231078
53.19599750893757
54.3412646788102
54.25447595110387
54.839989353643944
54.03610391357258
51.2371462856652
52.42768667373847
51.96228848770907
53.27030047520972
53.76021087107946
53.64620689406672
52.82877367088008
53.04953088162214
52.47629135870094
51.57340647265989
52.50190093608179
51.93011123268733
51.49469852747575
50.96068839403854
50.811596252195216
50.86468549494773
51.272186658221564
51.38223350673707
52.11762826938824
52.25797993289589
52.83814445882227
49.52494476041456
49.719088845451495
50.045806443266535
50.88162779479268
51.730866853407
51.68202185377434
51.24913447990747
50.41862127915204
50.8437292325396
50.605248011060084
50.096657603628536
50.44733804191318
50.44671424641346
50.85333887806154
51.53079063430834
52.42881574322035
53.12198557959321
52.57549484722917
52.1127527286107
52.59492012201298
51.698519900657004
52.27437349824482
52.08314160019487
51.736947169670046
52.66903597384465
52.10077472637841
51.61179713222989
53.688733932132244
56.9203155273503
59.87017458981798
64.54349473301019
63.302225304337895
62.33262141194215
55.40085391900669
52.18799509181969
51.395647586119445
50.94137315715483
50.96367944302876
51.21256725200385
51.110628137621404
51.42845255296544
50.31959021252212
51.34934118931449
50.47555688585184
50.28238528731973
50.05861919517243
49.96460731810333
50.01107747763822
50.26370386308273
50.467359966750024
50.688932609547386
52.91123152491459
52.32258685751333
53.764791283671705
53.84895143442145
52.55178295262807
53.04592456424667
52.63449620727065
52.55082348312549
52.827359669860776
51.34086775110273
52.91022651036232
56.76941488950407
56.229097013330076
54.44030110610745
55.156271832919344
52.6079664538534
51.24345257513329
51.61208650847198
49.79270279788819
49.2397939204078
49.373512203386895
49.88755571799721
49.84889220516851
50.1772943665715
50.52543978131995
52.10301610123893
51.97390894937111
52.11236572507698
52.482230753851375
54.945899434540955
54.51033715432053
53.189895822063285
51.449684917842376
50.7135802755947
50.45262469328331
50.35130965354845
50.38050970433657
50.11013527468443
50.4918111892781
50.51184281062323
49.98943592718117
50.37855255014015
49.50859950670679
50.118030555648254
49.87572957440381
49.25691355589348
48.683736155167594
48.63469322902146
49.123971861736585
49.393060394584154
50.00610154326852
53.872867470807755
55.395395549387764
57.68626827485874
60.44123847952127
58.29478083877075
54.663700975155855
53.844939503036876
52.46957980687641
51.99888151755067
50.058458632115595
49.92456093938012
49.83180153866953
49.41169041506888
49.95068335051697
49.93006477692719
50.60776260259066
51.58144947601544
51.94288850493942
51.90149906562141
52.324450663558444
50.86533128487595
52.300515574395256
53.96118722676081
54.66974639323461
53.85741815103325
50.63777858182748
50.803732194176185
52.93825371429934
54.61048377105541
57.52999788053654
62.42447495153264
64.51204707795868
64.5845264969427
70.57385140980395
66.59591405774945
64.999601053372
61.681122706968544
62.697611010443126
68.30328751639288
73.81060238034047
82.05798578685516
90.32520925988115
95.84814943889751
99.9704830764465
103.41093110482164
105.8921281006801
105.53789787063586
100.99707654728645
89.47700601076673
76.04027318256004
72.07188755447868
71.24351152447291
76.40054294195888
80.3278641033757
81.23590242018959
87.54471385627028
87.36535589554467
88.02351261001652
88.98958191281719
87.92912392417094
87.44629996003572
87.57755653866307
85.31369168601114
86.48063680880371
84.78846182980699
80.91919608289737
79.9074503609752
80.87639723154852
82.97744256300193
85.26407067030003
84.98123503628145
85.0719015844265
84.43200698245883
85.35433451173058
84.7204434978812
82.15979589660154
80.26193573993294
77.92449399512222
79.93805776517803
81.84806485845118
82.16169492303548
81.1143091033409
80.813071722178
80.93334955075935
80.69705578972876
82.61460135801293
81.23431557649023
80.9387162875343
78.4763844909599
79.54662786184406
80.3232634110336
83.22726983402228
81.94622445772082
80.0779194693999
81.71622866578767
79.09942927499029
78.05831856455694
74.78984867461826
73.96591174163392
75.05328031646806
75.37453099489225
78.02510045989416
79.28063697275103
80.39594965050347
83.74471728783628
74.63757293896052
71.57518862849068
73.87727163254168
73.97223487124582
84.6408352727908
91.95091029193118
98.90703180849347
103.79634869045186
107.72856002154855
111.04686426643855
113.01504750387464
114.37291783621278
114.6582699573489
114.32769817453004
113.65489252583815
112.82703625358955
112.06971824969027
111.71713508083823
112.62674117153065
115.55450886213802
118.9042450154166
122.38219769331117
124.12243597408445
124.97324833659037
125.3262793337797
126.08591566958907
127.42272956413323
129.07772115622657
130.82780502182578
132.76672468698212
134.46664297656338
135.73511077999066
136.85518342869545
137.47228141478737
137.96044573120093
138.68537995418913
139.37901382786677
140.75709291047576
142.00466692178378
143.62240926801218
145.23821212675705
146.35435994288522
146.99843884754344
147.4864760762496
147.75960707259688
147.7047804727776
147.40529374499985
147.51397166430152
147.6079454524888
147.80896023338684
147.4693738835546
147.17945381424653
146.80853750389403
147.02397084400405
147.42896555369248
147.64940376880585
147.9775543733008
148.45005651493202
148.8084694805576
149.19260296978862
149.5304226785615
149.67070556404948
149.64420069542658
148.98674303069643
147.68295162468795
146.06543802813735
144.31721687725548
143.00601299201793
141.98714436374382
140.39951846343303
138.580749630765
136.89796783407834
135.68724746058737
133.9683285083965
131.82165423625148
129.4135821803846
127.4266912148689
124.86583429577131
122.82726481386105
120.86240569451779
119.11459985589231
119.11439924211076
119.92801274794219
118.87367867189427
119.04384491179643
118.15060085023737
115.15204468882804
112.57760676701113
109.66045162549354
109.2093521274033
109.8669003516972
109.23567610180507
106.5647166342951
106.07212058890184
105.6542015411945
105.0949125038121
104.02553456800027
98.35005733895657
97.53984016113147
98.81112832455595
98.64455625283357
102.1096012097584
102.9791387314305
99.00196832050766
97.75077711936764
96.09658555618775
92.0652678101608
99.37540521098366
101.67800014686193
104.77796271254573
107.00311386644944
105.32685059686565
106.08401169807378
106.17127810559961
106.20100474906181
111.35105509508227
113.60118073453516
118.31230652157343
118.7458657495209
119.16708715773987
118.71461141630968
117.24658655150635
117.7196090320187
116.68859131823318
119.03545952133827
122.46650719642454
126.54546021969546
129.65289332426667
130.60560345296165
131.2688270854582
130.8328369497703
130.09470025981773
129.90327344840557
128.88663528584823
128.10230321955711
127.27826525441039
125.94034347041578
125.8745007967319
127.28993154615088
129.69795886641788
132.60929780402913
135.13514881173302
135.9138281934798
135.74857038383723
135.35439777294425
134.31514689599058
133.62911983299097
133.5423012287061
134.0687099180093
135.5491113958634
137.43380598376896
139.65267656462166
142.0632576876142
144.25342285689288
145.5857499534345
146.27679332159974
146.60523565504053
146.55092844389773
146.26880463530586
145.7362050572324
145.63525422152978
146.20850523087395
147.63592466275554
149.85060411109785
151.70901423468624
152.85439768224398
152.9134108074917
151.66578904063567
149.74819483771907
147.4598533495554
145.0328130436302
143.25882211920498
141.49811046298748
139.8962271503055
138.2754328704965
137.18283122804357
135.86141383541056
135.49447491281018
134.09505192821155
132.48082157963637
130.54809027600237
129.27628850053406
128.26454679033486
127.27218326823532
124.87143025849709
121.77222856823816
119.90710081660117
118.56128819812331
118.25955785407245
117.05287699438789
116.04598604168818
116.56037369472423
115.8109429213968
115.61739195825132
114.3737600420351
110.37021903643411
108.14237275008551
107.30426934599132
106.81369908043133
107.34050203013739
105.46567701690357
104.12510533910805
104.82892082781935
106.27863273297355
109.007786824894
109.15651320349852
107.36909389065292
101.18270013469801
99.04607518194625
98.30078477079525
95.664075607377
98.44043559366861
96.88010964742058
96.31967051883298
98.22574155220401
98.44903808213182
95.89996692663847
89.78402801217106
83.92612063705295
82.55971240706783
82.7113143133496
85.52987766331081
87.43211585479222
85.72794829231324
81.38079392324639
80.94632685291234
83.49126221690703
82.83087624399832
84.55061377475396
82.80916111354577
81.17814932452339
81.02219517635129
77.9403449266496
77.43368327256024
79.55455931039714
81.77406581397469
80.36276092865303
76.52771086223927
77.02003203039682
78.44634318690933
77.825583974122
78.6909804375777
80.11427077422806
80.40925860255645
81.73452044307216
81.4405962849628
77.97399930133517
78.30194888293552
81.41269452490182
86.38979233806663
86.62756662194874
83.24163235044347
77.00327789065663
71.3577153314269
70.90196234623858
71.640976039799
73.50527634183584
74.70780492923839
78.53216034910696
80.10392597694118
82.3945025653102
80.92430387349178
78.78541398391039
82.7911151158738
88.00716814928691
91.97338820350608
96.8681267917916
96.87904778638485
93.05213974550021
86.62757443841271
81.39531746371418
79.5748258364248
88.71957415668759
96.75675763645427
99.37692314047683
101.20546588854731
100.83007182706372
99.13233100705897
98.82958238516646
96.37653512451557
95.33597373554407
96.91843512732527
98.81999264626666
100.71087036416748
99.44935634325124
95.51833180743255
87.22929082676974
84.53283089600708
89.77336108612225
94.31092617109732
97.70808795134938
97.82152358483688
95.36395963939263
93.0289113356993
93.03080728131796
93.55617656522287
92.22740140396
89.102297641649
85.31795352103568
85.98480138416011
91.32224301476502
97.08549897377645
99.2389641258355
100.18202741560937
103.90029327429446
103.86399217484963
102.65240596652117
101.51261290468265
99.82098849838553
100.69111810761136
104.10331243257049
104.98753099464943
104.30068956510036
105.21548277422559
105.64354015086215
105.87907409630127
106.15946925593116
106.9592241897245
105.04045588251515
102.14909438185619
100.65995657786468
99.89576311527345
102.4259694855457
102.52133632420711
100.22659918824404
98.1402482170589
94.58213168273697
94.2070108980028
97.258475029531
99.18302832744212
100.98948264789409
102.43610646729589
101.84949238061198
103.63049140557733
105.6871636021956
102.5485930489929
98.01644666732946
92.46324840356684
88.92824911696142
94.99351308233021
97.41247476663898
99.16397889511275
99.8346792522441
100.09622597091
97.53084088417653
90.88505913933446
82.81023679505356
83.5252233726393
91.12710030619513
93.14552011957498
89.67099408845297
82.38297466698015
69.7109384323777
78.30487509285298
85.83005459212613
92.51381047698727
97.37590702714765
94.73416611984803
91.45896054104
87.32047881930936
88.79145303041095
92.92260808925242
97.2472106456733
97.60406845520718
96.59526909586005
93.55031311485972
89.85399179303695
86.68929688982959
89.70051268598905
92.67923751185964
95.85803769142886
98.29498375358176
101.11073617550356
96.56299008309557
88.28989530978976
77.49121788273403
73.09054275395053
79.84381041784128
91.25592493687655
96.20952711183185
98.89299374648476
99.53856500839969
97.09189268086384
95.50332375487223
91.41839650720057
91.19897692891118
90.72907456706473
95.7078403612768
100.10824286327407
102.0818683007617
105.1814552019917
105.50923671175904
104.56063582734151
100.57818311588977
96.43529061096058
92.80954283392272
90.9075662687611
93.07682315116882
92.52813170645378
89.734136621635
85.72840632180227
82.34985680389795
80.51955674621165
81.39542464393392
82.85136539224564
83.35875810848741
84.88987642728236
86.08515381038931
87.95673916523239
91.60199457337927
93.3707436740133
93.40073623557167
91.78161186133043
90.22770729252416
92.24141316769058
94.69975174086554
94.24331847067006
91.11218228294011
85.4789387611063
79.2675181240353
74.57713126483344
75.10579614196473
76.34726650245666
81.14167070658999
85.45084230784894
83.90817125956366
84.06578579729413
80.27028825893733
75.40185819115051
75.91385966349164
68.21547943119751
70.96775400253168
72.68126581495397
75.36215691572895
75.70146292113776
79.32160550876634
81.0713981006846
82.47078289059692
86.12847491701434
85.13897882251271
82.10780517602365
79.68754402296986
75.90349106157562
76.0333968633525
79.68556134247335
82.66465810885174
85.91013363572287
86.39754955603372
85.6038009483089
85.35960572793319
86.40581010392198
86.51190738110101
85.55391743001002
85.86616931124303
87.1235939732779
89.36643907849134
91.40652868796282
88.21222161841514
88.28672854673445
88.20812091601891
89.98015063492043
91.84645074443614
91.29628246560986
91.57193378870949
91.85416582802424
91.24641913303839
91.63041814071345
91.89236681242389
92.91887066136105
92.52134406149574
90.18557925782652
88.62402561718154
87.7762944277727
88.94705378589101
89.87036270227757
89.08536716840972
90.64214570247522
92.3513248008647
93.54250908978375
94.69954790251514
94.46696269989849
94.38486643277014
95.4040274287771
95.27351950813744
94.93115580134082
93.47561044434222
92.82028243674227
90.99765496570602
90.00731341509123
88.50587995107182
88.0429099377128
87.65615055366561
88.45109402790352
90.32212566252706
92.66272584340463
91.4256438004112
89.0303842967934
87.46967953272309
86.73032258142747
88.84759172048494
90.21624398895838
92.93459714586282
94.04001019427469
90.64577063156612
89.17601420605446
86.83285052014338
90.01654159463061
93.63966148414866
93.46273313630095
91.3339726143556
87.9038044808632
85.72055889186241
87.49144811046035
90.14302326468948
92.43981041530142
95.98674374622675
98.24733330217981
101.11559581420768
104.28685046699485
106.29415303486316
107.5580852843369
107.92867338901875
109.81879485887053
112.03806303614262
113.63465634455814
115.70195449959974
113.75182054351168
112.64737090424451
112.2959132285054
111.86678918012633
113.23635184852822
111.6848873199497
108.69953465594656
106.04648118896742
106.31717417706344
107.57242779434623
108.4998614068535
107.23669899277729
103.98261047581678
100.95895844668742
96.85147835316538
91.78692139291293
89.88818012093621
86.86975342422437
86.00967730030585
86.01007996086666
84.49817204205625
81.46599538385883
81.46927326358983
81.0133621608152
83.05273134161828
82.53207765346765
81.20078623752458
80.31731509199822
81.9074098385988
78.41303014368896
76.093406571343
70.9361735577932
69.92551827134497
69.51231858092515
70.48156872946812
68.82147043159813
70.32313187333062
71.42980793104557
69.80818812636596
69.43591800550078
71.38068013403726
71.48173142779414
79.05024246096595
76.78720422500221
75.64129358605042
74.02733267824466
72.52778940488433
75.59271787948319
80.89718605130028
81.89747306558132
78.12507497871583
74.94075903584441
69.49719100852975
69.53550195500343
68.81508975171707
68.42547517684312
71.83045943636274
75.37902321163202
78.11659147797597
81.6086526833349
79.2438777945112
77.03784826919579
76.0737273327277
73.66624819202818
71.48407768582098
69.98705865557119
68.52028954324028
70.26241595293709
70.94996277875805
72.00821571479217
73.22182548146125
75.57980118932662
81.40257723673777
83.67177144104653
85.75199597505204
86.34527623925672
85.24418364961468
81.60691934236172
79.53892491692758
79.3521644571776
80.94949060060911
84.59515319707754
85.2067969246063
82.78709774783813
82.50910196239859
85.32839868806211
88.10350427961782
91.58378527022533
96.67855302660092
94.39189764646314
91.3272753155411
88.37141667610787
84.546676931846
89.9909470657953
91.57265034607099
92.2648897634371
90.6442308474085
90.01117975810102
90.14907969191577
90.41866311218456
92.54805886023287
92.92976749739067
93.7930728351735
94.14151460875331
92.25685861628199
91.69840300318249
90.59809159012728
90.67374048165203
90.9249139503654
90.08136411429226
88.30595241123986
84.60977909958248
83.86084978143298
85.18984581408799
90.4092154539982
94.22433885322853
97.6304166956789
99.10250290230657
99.08020842986194
102.45721062603465
104.93961556912441
105.58655336681137
106.11558497525584
103.63490423889061
100.40228780687433
97.53508161085581
95.64869385382836
96.1191954925709
97.24647567153771
97.66180718084428
98.70126802729757
100.68831663476944
103.24045468731018
105.61909296362195
106.84125370203536
106.11439357201965
103.45307373577215
100.98210593488882
99.47935210306066
98.99481980032499
100.49483731979103
101.83499527392031
102.14603999425353
102.57844803559183
102.60747034707992
100.6945734735469
97.42173208224398
95.8097041944191
95.22807778882782
96.97812571637323
99.1507560593281
99.98936758852408
100.30343934812794
100.27863883607307
98.51685478093232
96.90191562415357
96.81670979695755
98.01836458024376
98.64684964910437
97.36140234458112
94.40833396492378
91.7396142561871
90.31971575663587
90.18781357324988
89.7550093741901
87.8434794076401
86.28225667836969
83.91206076031776
81.28030233856757
83.06617101219959
86.13842105785639
87.96157863005334
91.14215808388289
93.99443669240942
97.19289641960144
100.80158072298472
104.34407593148366
106.49094642703797
108.5014779746401
109.37923579185322
110.27707008938275
111.57992027164619
112.66701717167442
113.22942932965783
114.00961028805884
115.09746695401577
117.2549731209428
119.81840496116894
121.60938264248661
122.41328422200007
122.22986934889171
121.63984472831983
120.87124385007134
120.30895984995999
120.84345881979588
121.5995953874443
122.63598470697954
123.35210480315209
123.45206478532637
123.04348451397298
122.75232853089378
122.5482628364841
122.65288151012822
122.67564031353109
122.6979984285374
122.46397842372569
122.19969190104031
122.50974817113898
122.91838948047983
122.93539296013931
122.80252582643467
122.21969767310105
121.86066034061137
121.94105447591934
121.8690400635256
122.01116072395232
122.35022130432935
122.92268871936422
123.37828671411543
124.00910835608221
124.69283471751885
124.57903484369133
123.92513008725756
122.8891648228475
121.97501107858548
121.51001322947923
121.26107439898546
120.73731300152258
118.92633606053595
117.37363376690205
115.67840820957885
110.89015858231603
109.34280057916892
109.19292763040974
110.75904711009333
112.67051899573096
111.53606525324946
109.40516087871765
108.55367989303817
108.73071472967818
110.11571589699987
111.34850766675812
111.20634009775348
110.940387729769
111.82048495755096
112.67201732898107
113.06480598693693
112.45497709431065
111.89754902587457
111.73538178639282
112.3413408399977
113.16007623267183
113.15519980140178
113.41398061678312
112.37798101703098
110.97760118773796
110.63603159181048
111.31129291201115
112.58617426741311
112.54049677472106
112.37020064338455
112.17571699212614
112.2939896527123
112.96621489464756
112.73902852049393
112.43880409740284
111.11838145508823
109.04743454973237
107.1750194455521
106.3404212214165
106.35400183237682
107.3164119755394
108.07955951181208
105.52291716727603
104.95290902588023
106.70061706348528
110.24631660746027
117.19384975393879
122.64831505739541
128.54497282290697
133.7416749109217
137.09516649848453
139.16013741799162
139.10499335329115
137.66377002118205
135.79299018895665
134.60960439153334
134.22399080790737
134.0463725727771
134.24606852655086
135.10890467954067
136.85265743360134
139.2863183810274
141.12401389803102
142.46704287514814
143.08158705575528
143.40499963267075
143.35472400877123
142.97545039665235
142.62365961389608
142.32598645723817
142.27344662390325
142.73455115018913
143.17136586074568
143.9024889432377
144.5739114821862
144.86326334693632
144.67272872147046
143.67074507169596
141.88158472113486
139.39739395828266
137.5875738327345
137.30629226728303
138.35450974044596
140.0000305594101
140.92044641689515
141.50680695241834
142.06913683485107
142.60060984447946
142.92099753002532
143.10644552626567
143.02628821523942
143.07993185864365
142.8117768580147
142.3849137405687
141.98001343168278
141.9540283477883
142.08782384563386
141.97966101643888
141.95311207676409
141.56091923670175
140.7249246141206
139.6767086593943
138.48039727424728
138.12437649091933
139.06021273176916
141.07750231437612
143.40413895701894
145.25499283009188
146.24317261855893
146.03513276418644
144.69253407950455
143.91051070426911
143.85537094856195
143.66351403881924
144.09697489798745
144.4758009599557
144.23763273907224
144.42211803402122
144.15101640767162
143.25468572667396
142.36576602940008
140.37986044899398
138.51343355203687
136.56593764296034
134.6745778259435
133.11220031006172
131.08756833377072
129.02851653109718
125.65449853128214
121.55611685052753
117.32219066640828
114.52141274868134
113.80441579192389
112.48914756932702
112.4871987484395
110.04638683105671
106.87675497300074
106.4440707026697
108.48107649329047
113.50427787594639
117.45598855848137
119.63558009743178
119.52344509248178
118.25478041322691
116.92368134753148
115.69057353715769
116.011688622849
116.57028296044939
118.0315920412958
117.80172252554998
115.81641272051438
111.51256129065145
108.89598219638924
107.72722973606126
107.56644481081732
108.91770286286443
108.22701430429235
106.7944660367382
104.68895321804219
100.59009428434935
96.20229850211092
92.26640621951675
91.79609577532527
96.42527791363898
98.31134697260734
103.0534633043357
103.38651862881585
101.32205490666759
101.67664202089607
100.73337769013212
101.44135175193277
100.91248693730121
98.31853056474891
95.54200669588785
92.33441997424097
88.85226533798827
85.34881974138105
85.76491916038995
87.8591171339988
85.8225660155602
84.98992677782661
79.4271671412366
82.32019675591222
81.77912040617191
80.29022553518448
81.64749410898821
83.00778435772828
83.84574501193478
85.33943984865019
86.44414976464347
85.83380148757337
88.56931304433124
88.98091070498486
87.99365197028727
87.5505396856723
84.3561420106983
84.33706975990874
84.939583538033
83.55036540551019
85.82608409925012
88.92683515846251
92.02803440311641
95.25320140670226
95.93618725229477
95.2474257381881
96.42916196000222
96.07722801563763
96.59968549164533
96.68716478789169
96.13210296672054
97.6106898755297
99.35990708435166
98.15268724296506
97.63992928044506
97.27788597897292
97.57918099789697
100.37925986817878
101.28741529266698
103.12127291719017
104.73026364739636
105.81420694630128
105.04143597447009
103.75227553874872
103.476116392895
104.43657912496134
105.92411567275676
105.60429853234876
104.12080861486578
103.76980876743791
104.47800489515664
104.56852624691751
103.71722294429976
101.6665217673441
101.14803122686956
102.53195410292446
102.90826835740262
103.0356439316044
101.98643493206124
100.2730052228144
101.12499099985395
102.09416546873621
102.42088617270007
104.40515962958973
102.82260415640116
100.92502702513342
99.61149532523994
96.97925613395624
98.34129578702016
97.7901951840957
95.71524826418413
95.0867090921418
93.17850515591125
92.70109708000464
91.40688125518926
90.89528336705415
88.79462368430003
87.90261460957555
86.51301771703453
83.37023548003954
80.04992489962333
82.05169018130933
83.1831375240101
83.82368203598494
85.4364232949468
86.68631509606438
90.19831611050948
93.04319829584041
94.03502766312232
94.05879812233253
93.31400399833811
93.96211598047434
94.4476248764196
93.43192461178141
92.84244502446097
89.38564899219112
88.62396941432587
89.08838191853322
87.66757052833866
86.70990205507388
86.83430920355565
87.49468810128194
89.62339589734948
90.99038226784323
90.6912044438563
92.17826460830607
92.56537356189189
93.59876319383548
94.32279719691856
94.6661101493795
97.50546827663506
98.30127777540746
99.03916694671246
97.6992814069489
97.32051460557905
97.9329080868556
98.96877995280714
101.079254885926
102.24833371249937
99.61122202617655
97.3629038002481
94.8344548397455
90.39320217199956
94.75422163465286
95.89017417623812
94.35379961883983
94.4915061947181
92.64635682217612
91.9121997411023
90.95286817359982
90.74094495127848
91.77348617654853
93.51384379410588
94.82759213860096
94.09772365704362
93.56715292426088
92.245244372312
93.28449440179662
93.91568939289817
93.53297838548487
94.33783615425665
93.08313841932635
93.61669266348514
94.7089004454464
95.05134364752199
95.89723332835716
97.53196186031
99.45385547392335
102.90992456446493
106.1073274169896
107.8424347656194
108.20148999349027
106.8292168806287
105.77673031192184
105.54473119303013
105.62534078012771
105.6408411957431
105.92561137307553
105.59985284653223
106.16656869922969
107.50482097709346
109.12893005436652
110.62510922939327
107.25792562842697
102.20906756359796
95.55276141202872
91.71298597046228
91.12936236027258
93.28742537309869
96.42423717158897
98.28525689447552
96.46753762901363
91.87625802326086
89.2606039875115
89.16993942810149
85.97115782352235
89.36092414205453
89.01324703609872
90.80366883424632
93.35688625508415
89.79715187413979
86.53031808277964
83.32221876197477
78.69216898893124
79.38191001852447
79.26602159123935
79.24140006578803
75.85884195567984
76.67246968211687
74.82379559631408
71.52991203305749
69.15693814653545
68.73609440735765
69.98170555659743
71.02627566503526
72.83185730456307
70.44567639901165
70.64166010783241
75.89222337518726
77.2741005093358
79.5284832280384
77.28590169376663
74.2881663441668
73.03672207573916
71.2808143077217
71.07945464752419
74.53669805723285
73.75590184774718
78.2130298715858
75.34136496478004
75.27447476236571
73.4891536610312
69.57289519893776
70.4910519214423
71.77008589263444
70.3267176926492
70.08138840219794
69.74870336918312
74.65999211003191
77.2721550960061
73.46160521018359
69.86358241163614
72.06864278477046
74.06351688759672
78.0157616798532
75.82501539449105
74.442787491502
77.62792475449976
83.79098470618445
86.48980216082815
83.22166818530656
78.46031477186595
73.88468079484346
71.99889318846182
73.5050052426547
76.03576800897423
76.55408457859994
76.43892450597461
75.81330575608392
73.03791159466205
74.67569792689572
74.4925865684333
72.82102511154028
73.74218009886035
75.83396156209899
75.14403290232192
74.56267799241635
71.9381355475728
72.45113947872872
77.32826755428303
79.73884196293508
80.26277348233232
79.93197001921779
76.49933015647613
76.44132540779158
76.17682532422701
76.30259100021807
77.62084838046884
76.38930732252193
76.04460254590573
77.1693421437809
76.82954837330337
80.85441602070489
86.24011261217163
88.87452433668713
90.52469761710115
87.73630139365581
84.65577891659179
88.79413024310479
93.20094492932795
94.64165967093577
91.2907602126647
88.59848385628965
89.95857793459194
89.7252626171412
93.48898108235798
91.59702797235362
89.66649375512543
91.3298495450821
91.04158574893377
88.2318706213658
86.09244861439173
85.44489816896817
88.71768680986132
95.90837101605352
102.03357596317232
103.9881346303561
98.92690867460267
92.95023750746252
86.03929174255664
80.69706789456187
85.47525525340677
88.13584594923246
90.05989566509935
88.6262402035996
87.40690075801079
88.64756447014905
90.24939055067775
92.40514014908848
92.70592955735572
91.40225126310372
91.27147329946123
91.1128392924558
87.73364233684082
89.47272542741001
89.7308742268108
90.27402753559096
93.02725947419056
91.44585185844576
90.7657917699167
90.04929525209626
88.11071237792454
89.47453938046817
93.24461207399021
94.33958021840316
96.02923782118326
96.13742166663927
95.9015665110775
95.58021547636086
93.56887127664181
92.23470628958405
90.68865815976902
90.95971645679407
89.55613046726953
86.35142513410504
85.20734853196622
84.45573975186517
85.05814569037722
88.3425758373173
91.73565042710761
93.53259668117629
92.81744052594803
92.74626045397976
91.40813888461138
92.45129508288618
93.34764513801838
92.73313375245644
89.15783449203762
88.00432076396847
87.77876083450948
89.67568582666239
91.46275870839062
90.2393965052113
89.3234468741404
89.73070373686488
89.80442035109718
87.89191103025391
87.66074454667168
84.63701656985312
81.12940996941059
81.31355627057044
77.96650216206571
82.39204591831799
82.41361262703296
84.58595924654982
85.08385226002062
83.96137598428456
82.6376817562974
81.19123406016477
83.03455908396471
82.44105669457949
83.63387275422879
79.93751634106317
78.50788826843227
78.15266452073212
79.5129714019009
80.00431430557242
81.50343177819224
81.48537899345588
80.59436325753572
78.72700406415375
81.7749700597186
82.84668181180905
87.83143458026917
90.91149587107046
94.7104672433614
95.62036268837663
96.19971940993946
94.75803450055741
91.1954117344676
90.24223320103103
89.7439759452536
90.68729292507224
92.82839622957927
92.50475895096261
91.2129873969239
91.05505301858578
92.33428484449486
93.40113309254643
94.64176005221456
93.90255223677566
90.55965314906281
86.00037901584122
83.14410766325985
84.63564632556275
85.58305035848659
86.3807602498389
85.24982629552461
84.09928095518953
85.22748723471183
87.40913899391313
87.50837786623674
87.04024262217094
85.05907214717277
82.67817682688023
83.72044804844907
84.57209974840653
84.67945194655782
86.2564972827337
86.71430342624052
86.22039356575469
86.82442078507653
85.90608050783402
86.75019478841327
88.91713101046713
92.06203376367493
92.47930056153811
90.4797946473625
90.17468306316056
91.34804934537418
94.27629852694501
94.43722089264493
91.5124253819968
87.87463187030544
88.9329337729875
91.38991976835631
94.21733465949798
94.1523863062488
92.5253569630705
89.43526451995287
88.22283739712272
84.33081122182519
82.29846244443911
84.52158007188045
84.5541758109306
84.52778420570182
81.67444919381445
81.14279316862886
81.27928890519543
79.59376815746216
77.05755744486362
72.8863375284568
71.6728120749435
72.54592316011849
75.22242763807141
77.87500356418941
81.1393810854326
77.86357368539163
76.2775999623229
81.59122167741216
81.09091525825784
84.7374929529649
82.70186907727738
73.2858622211773
79.66192295313847
79.10184678075022
81.41479901721573
82.36719295159493
80.04498424533797
74.7003892326753
77.00533425271355
76.90161484032267
75.6241342948893
74.42162920520016
71.83238426423374
74.02973608739185
77.30200379535727
79.65341795766936
81.44919477951282
80.82919859030613
81.46349679092384
84.14816791164351
84.11275978865731
85.56409735044747
84.12850916103778
79.67138373954067
78.3218382339536
80.25586455986488
82.0954039022134
78.68782168547622
75.45364512383487
72.79014584496827
72.31671033971199
76.26694242195927
78.51022632037274
79.16534355382893
81.50390290386015
81.70595548136869
83.1687410395331
87.68133183799185
83.20470041850568
81.86530107024981
82.56789155117237
79.40479124160944
81.85377878217156
83.1749542564697
83.09497634409402
88.50098928979355
93.82478852722805
95.96393728343276
98.4995729038996
97.20133697224516
94.78553510468792
94.463711544042
93.5882469256129
93.75544141146683
90.69141120896451
86.23677471907462
85.50370383141492
84.70339620453748
87.2380037165898
90.80093349087718
86.47446407201237
87.1158230482196
85.59781753112719
85.5605565697094
85.03974821336175
83.45942479753084
81.66629455761591
77.94767621978228
77.58396652542599
75.67947624236335
74.95547236893182
75.16977225696769
78.16962374612595
81.0919423279316
80.47101294741532
79.44506036582936
79.09425338578279
79.04151069413393
80.74802803558981
81.58508387144029
83.9977760862934
84.55460784912756
83.09738414177987
80.75473077842238
79.56361283149062
82.76848466947354
84.39726317710844
83.25470172823472
81.21634649695349
77.48330052061372
79.7020444230299
81.292585006711
86.04023442070093
82.87297966603947
85.89612829744675
83.86856061749019
87.56191069374948
86.12672389276133
80.37963083471851
79.56165394887282
75.06242689262103
77.65985055493206
81.91437414692255
82.95446449804436
80.62005092105997
80.51173373356364
78.01906200839557
77.66126732848738
77.29522770564354
77.52976419422582
75.03603902228653
74.65273844913861
73.39076226438469
69.71184417879311
70.1647712418064
73.65922229743104
77.10823527818492
80.31429619186231
82.81733885378718
83.63094770201629
86.145200385052
89.5373499615936
90.61963182364592
91.70598720885305
92.09426533310005
92.11071737494699
92.9266965476685
91.84567379084396
89.19711426040028
87.13852030066083
86.28063079671385
87.52681280674958
85.82204720206717
85.35686058523767
82.30188609205183
79.96815007375827
76.98194624341205
73.65751086968139
73.95957487942684
72.74713075773988
74.01761765686956
73.3052800882768
74.48492867872238
74.92165536159266
76.62432995265468
79.36339180312572
83.4855750892319
86.00718028466186
84.78310661526474
82.42286389208262
77.13360380188566
73.4254124283754
76.20925517933273
79.44410279248953
84.41135801946247
88.4448665297903
91.03331044297362
90.70971199531607
90.37256445077767
84.89790568215564
82.61245128978513
80.52314951647875
80.93062242814929
84.1902592541181
84.58061887957874
84.81541231527832
84.72769745659862
85.25566778044741
85.67530384490091
86.0876486979743
85.21274723978053
83.02557304383306
78.5805206700417
79.76451016352607
76.67211056088999
76.53829758021546
73.74436380923433
73.1853904865315
72.95380361352011
73.16452393899637
72.36107531525732
72.16767294281811
74.66092673875079
78.05232389861416
79.87626114042259
79.90244760710485
85.06354226898992
86.4430139904346
88.56941489978264
89.01523364308656
87.35561024669735
87.93737444926235
86.27787493576557
84.66760960511198
81.52180059567488
78.63421448373438
77.69949551137
76.6295659670703
77.6557188028716
78.46474631841701
79.36984185890157
82.20207388155944
79.71397907841691
81.15131119681504
82.9030933509676
79.3133986989239
79.71982408244068
75.43330145570319
75.1833012650274
79.04902068318512
87.45264447702762
93.45906323549688
97.6767814115489
97.19647668001018
93.95242531725704
89.52670962133277
84.25546857408285
83.16139686086446
82.78612463185328
83.03909348721
83.19871075997584
87.11008413180326
84.04223105595175
83.25319776908205
83.54167343633176
83.93157611712708
87.03866225113877
87.21853781986479
83.59290998456595
80.3390001254594
80.00710575422065
81.21058357563359
82.80140201392784
84.43492640248589
84.9816643736854
83.92496681611419
83.8500975158629
83.18893833859738
84.51532785767421
85.97072786194884
89.0623141644457
89.0601624442986
86.54029691853253
82.82245458343749
77.01573175113828
74.80280675533375
74.75781888925331
77.10866358780386
77.66606914948055
75.99081651129106
74.7249082522057
73.81068826080022
74.18825395747623
72.32209915910131
73.50932774999343
72.39979418653998
74.404927565406
76.69926851984036
80.24719605207993
84.94150454251994
84.05724716815446
84.03250860130719
82.559845843629
81.65342698859362
81.1414064978319
76.72557786338486
77.81064401369315
77.24066928768588
76.77079121758189
76.1481109337722
76.01749978609642
76.37420673438402
78.1682395362711
79.31051532336025
80.1721956175613
80.50928688218832
82.29682991158182
82.22343454341333
82.67742273065649
78.6617117188653
79.61576103671501
80.64145950885268
80.86397486415378
82.65289905801585
79.33906334433422
81.7368439603905
78.63011056202747
80.07841153537399
82.13102474531428
80.12231588931304
81.99452036054282
80.20472497128117
81.38178209363144
80.4833951447587
82.75668664014195
86.48602689884447
89.82370275754205
91.95724516034119
96.50329381709672
97.78523764673083
101.25128488878788
102.17446936202425
103.12512550419196
103.01836202735898
102.46061938405266
103.06681777914969
102.08941771284961
104.76227322158866
105.55532838094653
107.90104149007918
108.76639984778123
107.08176905281388
105.86865002049556
103.98256859290392
102.43001246225784
103.40327951474752
104.90424725231661
107.35260112224779
108.03815979611045
107.3025220320416
106.39003574201526
105.66243047515894
105.01712549673873
104.39785492774044
105.17806576521808
105.9051686855461
105.20217196978503
106.1810464771755
107.71631582607864
108.53949887501355
111.5082139730612
109.13318120471475
106.9636438881097
103.0471487479052
100.20785577007976
98.6926236234035
97.93425297489108
93.74969774433598
89.55908030085106
85.68665531480352
81.61417428375019
87.89175637028926
93.16338005356486
93.59305412595094
89.91128927351856
86.32200185029792
77.53216068602215
77.99357708374467
79.4650726531107
82.49936748286044
83.5552810824939
86.7619157028553
92.71592151164417
99.2340229182778
105.42761607710294
108.60895334765814
109.76545497437766
106.78399850926893
101.27110289933793
95.2890661089212
91.9811367906161
90.6062868661196
92.15588663842561
88.35045937201456
83.6140462829568
80.43344457391527
81.03956539589073
87.5329443732579
91.61630772833092
94.0191665257738
93.76511217490389
90.4085906235089
90.74514316872774
88.31173989707594
86.80067400326567
83.89150274171222
81.00220506601454
81.75751476477097
80.316628284251
80.70546070701008
78.45607170918755
80.00545529179786
79.5063183014324
77.76597679441123
80.54598841791486
82.23100928157177
84.5372586813865
86.07728029736113
84.32369681438576
86.68235533839055
87.80537857860244
87.85215817251236
87.60798418216355
87.19907005362552
88.62362651572249
89.56277091883912
92.11950694319185
93.14639678744975
89.93750562674221
89.98375298131965
90.04640273800027
88.85420800944685
91.31682376154316
91.57018962359176
93.49237461172446
95.07441990470268
96.13173928723326
96.212066074139
95.74545544630523
97.7324355094806
98.39596758402126
101.57435006693855
105.57196601774923
108.88416021358475
111.16506948026127
112.10150939780979
111.97257084948505
112.63941660014943
112.48892253673343
112.67774921334048
113.30186302420144
113.97604972221417
113.71060168783234
111.9885828896772
108.57481838281494
107.9525241698694
108.51645433402305
108.53231151014317
109.53379121562801
107.83165894219654
107.78111482652908
109.21684410255685
109.64375575142451
109.9641083841663
109.48462159035162
108.54666616454496
108.59223581400558
107.38917888067823
106.06877678458923
104.69472875060364
102.85251000012309
103.28258487938304
104.45544514735967
105.1631618249003
104.65885522033575
102.98325450409781
100.94686579121554
99.43456260262646
99.1686986642905
100.52749942180087
104.72354864310324
107.44592764882488
109.862149462619
109.93338793738796
105.71154600641654
102.96004488329348
97.64452970556799
93.19246528413082
92.53429556426563
90.69727537845772
88.92546954066287
87.92412249766163
86.12715887836663
87.93071290927729
88.64876358250159
87.28354480009172
84.09543093002095
84.0376386012358
88.83320604187807
92.6658148079058
98.05528214935464
95.48893398101978
93.6752964162677
93.58028304795288
90.53344250452693
92.66771038204213
91.82796427350617
88.26517136852972
87.86895709591182
86.33621321230922
86.47831176413723
88.48575152224048
87.78683633092592
87.53539760266084
87.7112192145446
85.77689338428902
84.54552304056952
83.23033994244567
81.38583751028213
83.23548819054861
85.79282091296035
88.7442510385447
89.0299265603373
90.3272055830506
89.61744096132507
85.01564156465831
88.94591369704104
88.7187154639746
91.45932425004672
91.09217007438717
87.70763587237322
86.6965283392571
84.21131213819369
86.4243831715189
88.03075995454944
84.39166625811148
87.14757720625308
83.61120934214742
87.92169725778548
88.87539772494368
90.27415344422653
93.4851122595463
96.70138584657643
97.3247516655585
97.19310744677826
98.9348281724028
100.76932554297052
102.65061834766892
104.23740420831767
104.99965061080967
106.55035536797716
107.1426159033792
107.4203689433148
108.42719379553121
107.65836146315579
107.68965302694588
107.38445919772707
106.95750074873779
108.32937638244952
107.57399444287306
107.50103463826711
106.60056571891336
107.28901500541679
108.574725804154
109.69613315683345
110.54792504997705
109.42317478550798
107.93303165984351
106.87789331912464
106.57715583769239
106.31637995779501
106.5945313348352
106.85639177385308
107.34703206591419
106.44109956868638
105.4250380726152
105.25744912904575
103.65310649773015
101.83063562278355
98.40249248370345
96.47276180275384
96.33940916690122
97.53504266061806
97.64516865799042
98.58513388633408
101.37561329532467
102.27131116403687
100.17260379836453
98.06942060746427
94.32196588595731
89.48270456171316
88.86391089083813
86.38531827133589
83.72350488889866
83.32454999990212
83.90481303756478
86.25608347741795
85.57854481800632
85.63843236165168
87.17970426175424
84.25062909564545
83.74398613025289
82.12343627057831
79.25204352672233
82.94147463876439
84.20186417323657
84.65491103935834
81.98186546729488
80.15849627418359
76.68593035140664
72.52603690019005
72.64684488218434
72.38640296583671
75.21555626109155
76.16932244410324
79.21116084183681
78.4556008727597
78.58117735006994
78.79248676034395
79.8399309379369
82.60183637136495
83.33565148571265
81.89515296988705
79.8458919319147
78.83020437442262
77.88872065386619
78.07185855013257
81.04198090467318
81.8108476358582
81.26532731818631
78.80682610332441
75.68968831927869
76.73836167144745
79.3348435011514
81.97142881268516
83.15181546750819
85.60547995483077
85.92087989926748
86.93733883686387
87.5932690533007
85.54880857926929
85.24142359567567
82.69750829697031
79.53191696842691
79.09969033777699
79.28810428145317
80.43204666638627
81.23854086588024
77.83126833784983
75.58026083102062
71.84655611212598
70.36623950808641
71.00574130233545
76.08495361359577
79.2360142064347
83.71674029694604
86.54930989081525
89.49872076120083
92.79241664705492
97.9597797430324
98.9499850415702
97.24436618118165
93.95643442116965
87.18359968636196
87.03660265674843
86.79433179760866
85.86626534577746
83.55967377941786
81.20910611991079
80.66248149573208
84.58076930871559
87.50828669540732
88.83110426127719
88.3291623510652
86.81723604201922
85.11613393521
86.61332262717468
89.78414383290209
91.5909130914925
92.6219520413547
92.06216577895499
89.25417407781958
86.11204548302076
81.34457432578185
76.2943880737848
72.34151372023582
71.19205432904577
69.97875612795718
73.05104142884785
76.62681473044216
80.95548557495621
78.8935212092197
76.48095616014726
74.1028324627323
75.59458009350723
80.64524665417864
80.69538075432924
83.75119955846722
81.353971140724
79.87520741826741
81.56688644419282
81.73846098821578
83.476385262662
85.44732638199149
85.4908540482672
89.01107954052189
88.1100924918835
86.00869078339866
82.83494735992413
82.79506551457888
86.99897445310054
89.99537102740226
92.45065946033023
92.30851418675026
91.54640564757091
91.87152179153662
94.05936305659849
94.85961650413417
93.35684344673685
92.04020532562187
89.9753187954478
91.72404566623055
90.95437282526055
84.33763022173719
80.51266074249516
77.16135953113184
79.99053658128628
82.19109467064834
82.10031102864258
80.77271413202278
80.56289950050463
82.35380218476851
86.27767868626825
93.0828762627544
97.86583784719677
98.07649363569743
95.51756663970954
92.59536307186335
85.74406338076497
86.56990789108562
88.07953340868296
85.48788696330813
86.00809332686491
83.84892051254755
83.75890103213206
84.65798152237116
86.69484313559907
86.6005801426217
87.95316010232919
89.84402893547635
91.9754495181071
94.2338280881234
93.221308122436
92.31228748648049
93.20382309489293
94.32021375546272
96.53037877108858
95.84863348559941
93.68778980907864
92.93121080277687
94.01265972633941
94.80150669277093
95.39557957915417
94.72188644111641
95.1736742663644
96.24568384521976
99.04541881093563
99.30126987604183
99.56798810581479
100.32881140823179
99.98943336659774
100.43980515492285
99.42604966078619
98.39998348151852
99.19685247006954
102.99928882331398
101.2239034918339
100.1329342180298
97.19682723150233
90.726968472588
91.74329648987178
92.91017767928399
97.62072935473095
98.44636282792304
98.16376153564829
93.52373632678777
86.8173709116653
83.86491894799312
79.61522355272241
74.61596217373015
74.7480423614118
76.46163864652964
80.53093887554492
80.07314785178912
81.58084980588472
80.1226048068933
78.11528073447901
74.32036648911179
73.39825444571828
72.25483888627352
73.69414883057279
72.84988683163458
73.54528768960816
68.6839649929767
71.4009444192607
68.74808618651295
70.34513678407049
69.17537245342737
70.90241162359263
75.34797915318036
71.25551400048604
73.02668139615199
72.5361720269039
76.99625643322977
79.063335179539
82.04349452135294
79.048083503138
75.55920860306759
70.90854000764375
73.3775949813384
76.2780431954924
80.84183370762366
79.4451241196429
75.2846386160754
75.76370561216987
72.35430958128887
72.53004403330185
69.72308118399712
63.76493023198873
69.81410213588856
74.81675981268864
72.83957841210386
71.5108257394577
69.45072184383525
76.04563169567618
79.71860843806253
79.99457710853677
78.90122472700608
74.62720563594388
73.82399650791008
76.69402853384271
76.3352556699587
74.31469679684979
75.03272347262265
76.15654153643997
73.96045026797225
74.890714988729
73.76203397519213
78.43424838825096
79.17431398152513
81.28885258621881
75.82261943198273
73.27689559501077
75.06682187875253
72.19041909488537
78.14612484922026
77.50813203461506
75.21858953244369
75.53706193439568
72.78546691829337
74.3004857029126
75.84844860423549
79.49620378373596
79.43361939020713
77.92897901314663
74.54209772807584
73.47302600108947
75.82506691465342
80.11951112764967
81.6003621830012
77.25644858698931
75.24499957838536
74.54071035740013
71.3168820963129
74.68593481207945
72.96524933182712
72.51253785168933
76.47012671971487
76.78160783523823
81.2697230524407
81.57978652127592
80.37079257257807
74.77205194697456
73.34052095021605
77.45094295196144
83.39941046950653
83.62306032226111
81.76021498245584
73.7745586673137
70.05472901402788
77.38337774576145
83.14167478144157
82.14082624158667
79.40553107435656
79.91531089160081
78.63377271674838
80.87486910293819
79.92913786354389
72.04485404714417
75.00818122922136
78.22584129754256
79.5553263528233
82.84165545303512
81.04960721614307
77.73567674044752
79.3380989749625
76.04005062171639
74.19384867839344
71.6961411051239
72.65042879587067
74.42850005107559
73.9048009668776
71.34953820507795
70.6075192728708
69.79537373155182
70.6801565148496
73.42831690597043
74.22155968704283
77.52970426797643
83.70707611437231
83.50604996236378
82.35523835963286
80.20339026054484
73.60326217604151
76.81056280041498
78.06050347863471
76.63915311707265
78.03293863674627
78.17105990128678
80.89967488507259
79.49446398101394
78.58256597706891
75.40489113383515
70.21451299519967
75.52660147810924
80.71950515027933
83.95985938351107
83.83930179858139
80.1523642729455
77.35445859218024
77.9950238173916
77.1691428681078
78.93146690167566
80.90343123209456
76.96592705005851
75.19571075062558
70.78523964734389
69.29750524000056
75.76691622795117
75.21592353587224
75.56896651725192
72.95692104979665
70.95004417772493
75.40346801637234
81.16574704986802
83.43156904134933
86.6425261438217
84.28774389342715
83.1141679899488
85.08316634753079
84.99832686080968
89.52011759031912
87.19088525739147
85.79433796335428
82.81557298168248
78.6046629030798
81.92725582877387
80.16269862409519
85.45797032416365
87.08505025900583
82.8540597314547
79.70967013085847
78.76142858278088
75.14622251963728
72.61532163707565
70.4520442631065
70.62864820246756
76.07846668870616
77.55873856960554
80.35912529940371
81.2061770976562
83.60515287494327
82.9592047987692
82.48387620333656
83.16911239368784
81.74611149100775
83.60774971771549
81.20045369148401
76.79293833561375
79.65692525551215
82.0944295638336
83.51179873643217
81.90375215327325
77.13672501191212
73.82674345875674
79.27032354311577
77.79897886524665
78.73351118637409
75.34711911104124
77.37228236040457
79.294934804257
80.8728804615986
82.63422986592121
79.10774528918124
78.86674920977617
78.6771410740389
74.0946065749991
72.58109598491075
71.09220404300481
70.94354640329851
72.04862486008108
75.57477657109946
80.83362176490202
83.59008072257616
85.61000981788865
86.1032501903147
83.43182932590281
87.1221711888697
88.71924936142997
87.64971671289048
88.66963464867743
86.26643315212732
80.20293765851423
77.84134241168023
79.95504674232174
79.74390202299622
81.51791017912038
77.37375061814473
69.53342516217656
69.23222978018518
76.42533449118645
79.50984421948746
80.49320463877969
77.12548272932256
71.3452437743453
69.409291510661
69.62027731714399
69.5914099017907
67.41915986314422
71.34405919594658
72.61596828037563
71.5541908855138
68.81501031854025
68.71198054769312
70.59068111060421
69.05167516202015
68.51210116162281
67.78694330094083
70.33928183959983
76.69036281487811
75.37058875239768
79.23516184765285
76.41086098368993
73.29204437780976
76.2587067034511
74.74307553100356
77.39935056076557
74.7788924980558
72.33223414915393
72.52518636181512
70.70852817174531
74.48147373147305
77.97531035748108
82.56613058402925
83.6863885152067
82.08110776384474
83.50340302986112
80.7973637366762
81.85093616527045
80.10646189960445
78.78100076609437
79.45544410857786
82.55169330058328
81.08549228417006
79.0604473501767
77.97468332799824
77.30159189681224
84.9302579299507
86.90864590689603
87.1196240424582
89.08829497053684
85.00814703583289
86.73420562366363
85.23560742522072
79.59776122117978
81.49526040388358
77.89693503634105
77.58166197228277
78.89028342052636
80.36959443411023
84.28819001702837
85.40814775306956
85.06135507798878
86.81328734144994
89.19234676208912
91.20088323919778
88.68791238312332
86.09780400400355
84.6109844011717
86.83507361264802
90.69517024475078
89.30327463728689
88.75778931458935
86.03277319140024
85.83931822223178
88.45060346667778
84.85105143048042
83.0678904013378
80.87225854598503
76.20311360817534
78.2250119852728
77.67860016233692
76.33072264038357
76.83557153013005
77.73039871866207
77.39794594966189
81.44679588391006
81.77686572483931
85.41216537328569
85.91194725289022
81.76732580633713
83.22405035842894
76.08752955065542
75.26456199709396
74.41494491676852
71.99799228546976
74.85585923641445
75.2596295778052
76.8237107296688
77.53673457417064
79.63026912115272
79.87783503320475
80.17539841739067
82.93596947513528
84.97513478798747
86.99605914186844
87.14046926697796
84.72629739766289
84.14773000863632
84.74065749127027
84.31977475026389
85.00031239314526
84.70177582101383
85.29977128036391
87.24326913424282
84.57441445136357
84.16356527193757
84.33516723438531
85.71543804128204
88.47994560255768
86.97477118932392
88.06821013904197
84.63919660452
81.32590798147278
80.64524259255003
77.61813276593537
79.31977912514154
77.30310434527786
75.53556513936186
71.08464995194075
69.38287800436959
72.57190378191734
74.61483558898789
78.00252383108398
77.74755471789597
73.95393117346755
73.63493119283542
71.68568680354332
75.10369856853204
77.62720707910789
78.56155148936597
80.28905754252851
81.12675461258466
81.92986956792235
81.96821452177508
82.0709577423281
83.83795502066496
85.86973899883401
86.60113048983713
86.12583511864229
85.71648216690224
83.52242393493846
83.67569204002734
84.6813721296967
83.48628263088904
83.67898562605842
82.6815503812323
80.93151388410458
81.72689929359842
81.72747789896195
78.90535878006412
77.83515906424606
77.83346483475853
78.8573954390644
79.66443352873077
78.4447657393228
76.36606580879817
77.89354721438866
76.12415133418187
76.44717818960147
74.37963873501543
72.5357435591108
75.55984950600669
75.82072886517085
77.94271981671275
77.2273228001954
77.69213264422446
79.4143855594259
80.88468933080597
83.22044183713237
85.83779390431678
87.34889966689427
88.31852316188005
88.96757959958231
87.56664588276014
86.9549477152587
88.30401907744296
88.59721710184624
86.0990204743583
85.23064849847032
81.84684784681608
80.07089791610223
82.98515209767643
80.37692257402233
82.95671062036145
82.88548628147578
84.32319454940543
84.39411454479979
84.67792532996067
84.65700442775592
85.35944960136322
87.23924467462747
89.75739111812264
90.90939429620909
88.3865067460926
88.11504042405491
87.53490814525274
88.03192095640188
88.16039257883331
85.99307143269911
86.53329816019192
88.45545376136701
85.92822398875721
87.05903776045301
85.09068848593338
85.72983484089777
84.29326675237272
78.91992169183526
82.1079207372398
84.8869653960347
85.72067904260788
84.85089228529066
81.54129620324746
80.83076099502317
83.50019961897385
85.0611106958044
84.68445825246722
81.79300064699211
84.95082704993851
85.67734568160908
86.7985969151907
89.05368372370255
87.71123925708783
86.168451238031
84.15621210063861
78.40011898844546
79.21656380149338
80.51499642516654
83.36200959310398
84.03220016819418
82.989192587085
81.73653463066496
79.83139203880755
80.30071438293302
82.30545434777017
87.54768740717157
87.22979146334147
85.43310697574904
83.24909742096797
80.14115502494592
82.75897626600111
82.20050551202301
80.36294881139358
81.1231148715911
83.99857951307801
84.5701956406776
87.92605049193483
87.08876403144589
85.15290863568734
87.03881833037879
88.1355140265011
85.29870055114084
87.45043382329646
86.87078468973208
88.05538877189991
88.00010342084965
84.77209452599159
83.91281841780703
82.21210760380085
81.15824559119918
81.55647790345591
82.30724647099706
82.88502383449621
84.01958724885426
81.43864958401748
85.06581416301592
84.30892750174175
83.54285759777981
86.52344674966191
88.34640283786088
88.51313008692247
88.60377872183257
87.64214533225385
86.68733869627881
86.70300874444776
87.21171189427686
81.75939661153714
81.0382151663781
83.67492690117231
84.6700420361674
82.66439720156116
79.63699293385658
74.170704620658
73.48663799005178
73.61906200873078
75.79710849733917
76.40990366070106
78.29753701123846
80.71348470916116
82.17436097626424
81.03988523382118
79.77466945865471
79.1613435536324
82.4512816008703
86.45282497644288
85.76192847898993
85.67081496516181
82.5741029130853
82.48384659772361
86.12437555281875
87.25054226714717
86.89396579893251
83.51286926048131
82.1537767537366
82.45768854385199
82.72009738522698
82.23800637865807
76.29818881941105
76.08974045747135
74.60676336013117
74.99240315994959
74.19297313100382
73.70629544889066
75.80172386647948
76.50849402279428
77.03362674456058
79.45047185962036
80.50996189750548
82.09365505023922
83.8759069665077
83.87243143849551
87.17247953607016
84.2093072211845
87.05769527380588
83.72091873698497
83.88010497688569
85.35385991697085
79.25783128302197
79.19476450821298
81.06206499655889
79.32697624754434
81.6422352903744
78.9592234355323
74.33605786807013
75.55859666144221
76.44796028504148
79.57969447875715
80.3525076006633
80.40663589277533
77.90353342357432
75.88497564460503
75.21967762761102
72.13403292742737
73.71426708907534
74.75646133395823
75.3278599301945
78.47771660566208
77.34837227746291
77.62043320687806
78.85855838705113
80.42841760370123
84.24534735938803
83.15156928556534
80.02410327114539
78.2281657781964
75.48139274402018
79.29502013673847
83.76072973499699
84.48496985663301
86.31549691518265
82.99769738966845
80.25612714960228
76.27366050830486
76.89434663450224
79.40264713280973
82.596960846206
83.788542112439
82.33279049835475
81.62013363716737
79.49851848776092
80.1233366399073
81.84259395161709
83.81840798836933
84.96467203580559
84.97859284654182
84.95467502823462
82.1370129260615
82.07136878631586
80.36683545799922
80.90665706236993
85.12785948215503
84.57870086571161
87.2465725900708
85.22545769207183
83.92505674213534
84.3860138294462
82.73945173821085
82.71741019211038
82.60759675614179
84.71200238400779
85.62473940614112
83.0716263872712
78.53197445842345
73.56398624137697
75.77600489686245
78.11313082517228
81.81803458997642
80.30924814981391
80.80920194065021
82.22582909179106
84.54591080993387
87.21029856279964
85.50210276281095
83.91432378801795
83.4141549168676
83.32165221755383
84.41274683354078
82.15676826422776
80.2242530182596
78.25995945045742
77.53025247240005
81.15577008601956
77.42474839287486
78.93136327457623
80.97266444920618
82.46352037986144
81.66024452727717
79.09775485785157
75.24471476423301
74.24403610656398
74.18264109050529
77.28660740794714
79.15182187930164
81.44952215735363
82.72854689400678
81.73153361466831
79.74219369907694
79.67251219737844
78.13647013113793
78.73438684924896
81.53076294824386
84.11829708494687
84.80546732536328
81.38282923262085
77.471406123932
73.31457019525479
75.73185038120815
80.09296583903367
80.35902618559577
77.45253254505907
74.90882508331883
76.23616074047435
80.06177504121776
83.91603248140821
84.5706169978789
82.97940234797007
76.30603979251985
78.54230548148122
71.7926268415618
74.41038755608317
74.08968457689508
71.23111871725649
73.13384587800799
75.52627192975702
77.32604644367429
76.08969025194102
71.85050672422629
76.27979741927211
78.67411600385473
79.10167336680462
79.88801387030664
79.8951434197062
78.5076254377287
77.04277830437275
78.03787990252621
77.8423753952626
78.83006044246011
79.96861874553446
82.90172006828887
81.61105644644826
79.85478823759415
76.06004225847784
74.66592365046029
80.88361467186299
81.50812762770427
78.38670762824981
74.3831286134073
73.49276239220308
79.87797646654353
84.14516645337176
82.65831709981424
80.76896218089108
79.71964350858178
78.64382336113067
77.07808771011858
79.17393410264256
78.79733557368068
75.51660806001512
79.19862003802595
83.58945782575975
83.41067922512796
82.63118539952104
77.9267158672526
77.46808004132615
78.25896983018905
80.93971032425246
76.3332643439157
70.47249423024074
68.16557789798287
72.45311549247542
76.72146349503755
78.1207434570697
76.11512751546287
77.12970698309076
79.39374750562051
77.39702576490559
76.33595080834125
72.76948878496195
68.49572437012702
70.70478883066284
74.2175543237035
76.32679259041186
75.87487979916038
74.04399263481292
73.93046840774147
77.2317129014577
77.24543293478551
77.88206749914573
76.4216449963001
74.578310727023
77.180648785657
78.9022497151525
78.53820927090942
74.82769319777208
72.64945605787516
71.14218289269292
69.69815036362394
69.76668912671798
71.50246625696026
77.54822723605298
77.37213805299663
77.91489397174075
72.23684743104857
67.49226824186422
69.73696588104619
70.88103563407746
76.8985872414509
77.97312942189336
74.46455658640981
76.29768254746853
75.6858722984367
80.55631790480862
84.3997092980602
84.82046228053821
80.38373910742754
77.91160325385121
76.48032073417313
75.23294710354874
78.96336886273882
76.89373444652593
73.73839952735123
73.43064836740527
64.77673006731106
65.14729469795607
68.42101419636217
71.8580550032235
73.60671819194985
76.48305615055638
72.86338578719754
75.12000905321966
77.26142101855574
77.15762005873749
77.25012737676987
76.50366983877166
71.45961633155083
72.90705179327574
69.7073744272605
71.82000156578528
76.39806320440204
76.77675556830208
78.33419387691065
81.2403440206476
76.8791194415547
74.83675486544523
71.54871270729143
72.03210004203953
75.27957876854234
75.43266997796741
76.61258730100728
72.22534655903834
71.62704148795939
71.03470700902477
74.29573674336895
78.14437347231222
82.23602437613262
82.38758797749526
82.63223594811589
81.72098869993258
80.5128640929829
79.55340253990498
77.04358224491268
84.20967559144167
85.65097029846763
84.70670090295769
78.70137494133868
72.20064533321542
67.9042431354525
74.14503476748867
75.06947702420732
78.23059579127764
81.0362000805937
76.44645677472167
77.17746300089883
73.89451504396798
70.6751019920711
74.60245418597407
72.6267234866752
75.87022141006108
74.51447646368595
77.07597830354123
77.40620609198787
76.49794597419726
75.03046186827163
70.6048424313079
69.85499151027847
71.5348029220782
79.27029759903729
83.00254659319333
80.30796886869584
75.21040310364454
70.95096939744147
68.4733824325373
69.84141868665034
71.65297728940966
72.9195707724123
74.3886782159449
74.07601320340278
75.04487050154448
74.75976196253706
76.28903681516661
75.97690762507624
76.27781818696752
74.25456655264792
77.20069849439989
74.94702645679244
73.87663324306244
76.75379977992299
75.16286846653544
79.97865447651336
84.2845146579193
82.2574463596249
83.08762701767591
77.77252057549705
70.51461477698597
71.4981240072211
73.9958790966075
73.01743184261758
70.65886670543156
67.60503827643205
67.25744851831311
74.93412277008169
75.45069677053726
77.73710999522893
78.65609967129825
73.98969450476619
73.08504597980057
70.47914765821068
69.681045036456
70.30024500050432
71.44698583151403
70.34824546328544
74.62211078566571
77.7042375343583
75.79092055913969
76.77892717188735
73.42818169353512
77.26804840756118
78.09375973865957
70.41557864348562
69.82301812380433
63.72471448901034
66.86094969532698
68.63471047511328
67.07507201734126
65.88018725097098
68.82698167292007
71.53475069037913
75.67731867949355
76.97124777418462
77.14244051790597
75.83633592594643
77.57714996668349
74.23213513428131
73.55230868571529
72.75250537533256
69.78181974447075
69.52257386924526
66.25923706024912
66.1107416336206
68.03442279159898
69.35133357262558
72.88682811136007
76.18478614666911
79.41073289281356
78.94781932270388
76.66157103092
77.4467357043648
74.90098913783052
75.97102951266783
70.92055250603482
70.37465195928559
75.5929900359466
82.14838672464404
88.09471628608921
93.07796275054311
92.36981337406478
93.66511534507596
92.13295922417353
91.1395549847897
90.64150939635049
88.20413432694934
85.2419342237919
83.14432492955234
83.05404853441132
85.75155289388063
89.30756817664249
92.06272906384774
94.86248845276378
95.19291644554336
96.1974108436966
95.48052323316915
95.07500474261154
96.41836107752066
97.75895743639107
99.87698396969078
100.17699961998669
100.52145277283176
102.1865990542729
102.9247974382193
104.01611880273377
104.72322858774905
104.97157174079355
104.89851555171424
104.09498936901157
103.04694178531587
103.09170135462088
104.21557856958177
105.4621104122942
105.88373815903853
106.45080597369306
105.27558124311061
103.07981023191748
101.96439198104999
101.95231015725795
99.72584547085829
97.15580493890097
95.53784802431585
92.20057733097443
93.90903917377914
94.48683841502344
94.76446183611202
96.55834190661294
98.30655475103855
100.31355871162704
100.17112426962242
99.94603242187782
98.39197968451998
97.55356674230661
98.66170172750277
98.01703431646321
98.31616267364035
96.40613230704358
92.98857702688571
91.5654918818666
92.87003525393459
94.99468573217149
97.84452757347897
97.56643218258877
95.96661722246034
96.15962740542221
97.67398497628183
99.80103233316942
101.18023604358831
101.64933889333413
101.06137903556697
101.3982713127632
102.13286089767847
102.90123936596716
104.03929310075623
105.2017336829433
105.25334311045665
106.02664308216798
105.09079028757202
104.20207347265267
103.61349141449887
103.78178804784149
104.8714282635178
104.87046481220969
105.624516110312
105.82900725038469
107.52725494966862
108.2647447994635
107.77945103210337
108.38569049652821
108.67443948971494
108.8774200421785
108.11638738204486
105.6176491299121
103.91679700486485
102.39804588754502
101.93722106511882
100.30410300836924
98.95115408993367
100.04901136156603
100.17741296063218
101.47641056959914
102.1396579535203
101.49120524849371
102.30375327426894
101.873829796507
103.06475836781259
103.3883146885758
103.3328383797243
103.55772420429957
101.88723122287409
101.29237141845488
101.84387035843226
103.7928156316194
105.88286938887747
106.85011324727414
106.2982414048879
105.56436534256075
103.08493469757485
103.10216723377411
103.12744961032061
101.72329338738496
100.1050894888027
96.97883627891302
94.71023046719836
93.92092208115378
94.63010713824468
97.2829075937822
96.94459317144198
97.95497952564007
99.43457789017987
99.97938580993326
101.26130189035253
101.93674714586915
101.22568709930214
102.82664741707049
104.49979710976683
103.90424356896716
102.8009020114784
100.31076329116833
95.76644794213468
94.2632010590829
94.15626235871683
95.11151012782524
95.53799885594027
93.88114081218527
90.44480178593949
87.5711488793835
87.55817534244594
88.22961938627147
89.59089958067494
90.81687143587278
87.84054264838308
87.63835926060302
88.9009111213258
90.59849180685686
93.3483861643561
92.64815375341459
91.29592693505695
89.2334336986608
87.98907172373367
89.12787652162093
91.28776845409537
95.39519231525075
97.80412952573643
99.69843596709099
101.53367761408404
103.1380812747981
104.57248651413413
105.1900894116014
105.51903202225566
105.37782204342611
104.40418485164675
103.8859700372907
104.64542464159285
106.83125197479568
110.20551762731037
111.8806976962748
112.12617596594022
111.1033130809576
110.1890940248911
107.70743613475913
105.2253675949538
102.34787651102762
102.20900001041242
104.68166527441792
108.74998249730781
110.74390899245557
110.96818416466584
109.72924904296903
108.96629456449173
107.01972892666814
105.449829365337
104.51931204471657
103.86000887211705
105.21039705430707
106.4971759970665
106.92867207545702
105.51693684639086
103.51971303400121
101.78267762060115
102.74019617509764
105.08827223473173
105.91719447076701
105.3210641402259
102.93078919516824
100.33812304862472
100.24714017702695
102.07391869181635
104.67787761854146
103.71596974842342
102.68863248411657
100.21879826828923
99.81981305761317
99.0994905965648
99.16216764401953
99.32096427539591
98.30880417362249
98.02495056477524
98.9765439644133
99.42231593297949
99.67810333792234
99.57768533882971
99.3239110198879
98.39204680134473
97.99530115550806
97.36548062911402
98.10454182015297
100.06696062090622
101.92090878356625
102.89916202722515
102.90819606965017
102.250739086407
102.48535300349765
103.2241779972243
104.61611623098119
105.93717666821875
105.22342044091596
103.17087990227381
101.7124694314151
100.62172397163009
101.56854827802835
101.23620707584814
101.69575725500994
101.64618082248664
100.89924035863767
100.10208620465805
98.28645953723282
98.40050140332698
99.59778909219726
100.44185235178654
100.12489388940185
97.72255950004705
95.94374426110886
97.19033237011
99.91093172788705
100.79728528797652
100.105583544436
97.07231126905971
94.52765977175432
95.6602396122471
97.02398064115305
98.93219627593068
97.84820789711539
94.91166577183184
94.19533550356023
96.15409018607019
96.41573338642856
96.15592234482945
94.45273832539806
94.4439478987015
96.95723664632388
96.58073515993814
96.14947746450667
94.01679972736747
92.89391904251768
94.49033040720862
95.14082086712894
95.6888908564391
94.95767525275106
93.84066753543453
94.48392154772542
95.63307813160078
97.60590390750617
98.88754469346941
98.73416573087286
98.03224561266588
98.4866255871085
97.5667430821748
97.40046996453565
95.7939827725268
95.12112978493502
96.07425106775192
96.17375880416705
98.51053335669842
99.26717508762499
99.18135760905328
99.5008599617762
99.27614272151614
99.57016250610496
98.3659722437899
97.50038820735244
98.25644237250968
100.08381521364616
101.40678444369975
100.40390447725451
98.60068458823655
96.19777658088162
95.88728751488323
95.56134008544825
95.04939422747806
95.36336476746988
93.56456363193882
92.87856926726808
94.27610375392605
96.54169532814507
99.0526297355061
101.57324458648048
101.33538914540605
101.22601189359202
100.7487421079935
98.8730078574382
99.23992465262386
98.78662188096696
99.5636692588423
99.24233065176593
98.79427421841123
99.29195452501098
99.5019555636073
100.9874898019348
100.07067518759975
100.34452979887014
101.31356271684318
101.6065401427865
101.70670615387873
100.47003282844729
99.04800426480637
98.65496492179763
97.65233771640276
97.97630032932744
98.52518365164946
98.59640306806226
97.26522644402223
96.76189485133126
98.02580282651424
100.8074422411979
103.19702228183657
101.53919818200825
99.23981757787361
97.39937401920086
97.620302339864
99.6114668258808
99.74344833246806
98.96243842695226
96.70088418812105
93.86619036602133
93.07632039782851
94.40058528742492
96.80415337000765
98.69384908742965
100.10383814988005
100.32271036978692
100.87434532728405
99.3876438633742
99.42262283922604
98.95859450661145
99.21771642088986
99.54470175823303
99.03428217865384
98.23139896531144
97.56434083060559
98.23942018262579
99.21692003900272
101.66163162235333
102.84307226542029
100.54655200761437
97.57963489909032
96.78265427508461
94.9892049365949
98.02400244259456
98.58907393559315
96.32703856755222
96.27503897430172
97.52168716929935
96.9361313239131
95.89878018600699
94.52162483546257
92.30265485091394
94.0423626518838
97.53514007375703
99.65143730581802
103.0173417041349
105.61495088112665
108.62988448844523
112.96272884803186
115.98577153870893
118.84573074121641
120.95001610085826
122.49323103769642
123.06766385561059
124.10030130495807
125.07979284110307
126.67477850518625
128.81144259969028
130.9134005714598
132.55898852650336
134.7122886593745
135.44928265789125
137.09779189264043
137.3547734023656
137.33012633137676
136.21287117160554
134.56659121393994
133.86563032251144
132.97419235019152
131.93787349610417
129.21153302896485
124.71746208026003
119.17501777986732
116.16252178923948
113.26687215788839
111.79203616183192
110.90198468919056
106.8712703576967
105.4883109880503
104.42240383521724
103.3575861439378
104.88913502221763
103.45447158751686
99.77252854607072
96.48160394793774
93.60199573166663
95.79324378261238
97.66292597736907
98.76064073011004
95.84639548011332
93.48861806686836
91.24171570322562
86.25504960007038
85.10987465599783
82.82454128239019
87.28474649211962
92.68769414146617
93.97613328301811
94.45022251256587
93.02887652191463
87.9230489574202
84.47597363731839
79.69761950840665
78.67107784365511
80.49570792891276
82.0280457560737
82.33310680200039
80.24594741298193
79.99914877792145
78.93771200542065
78.26003265860228
76.9322838775044
79.49245520263298
81.14183537563078
78.98108576080142
78.76444675595131
75.47998308057093
72.46160725185214
72.80107844269978
69.80619189703476
69.56110079456843
67.44823439996398
67.9389373498317
68.19905028824284
63.685507088047856
61.592101271289884
61.881836836037735
62.46321453788477
66.83161293258955
67.98175187095606
69.68611325846483
68.81477447992842
67.33300244297092
67.62274842208498
67.24366210652605
68.32522196146147
75.57927533711977
73.77739365810206
72.43195668283207
70.17092308102832
65.62733499162584
72.77804964990679
80.32895057777377
81.13120419209686
80.22321301465064
70.84612276410405
59.155552304551456
60.150701536748144
61.48749283289834
66.68639680592986
69.64921089179319
73.56541712018583
78.97191045943485
80.14775884848318
76.50241206332639
75.40747941239201
69.19640349781687
73.62618319631699
74.39584741682403
75.51469092290431
80.53536386980137
79.61006051270942
81.5520426477886
79.60788625413025
75.76244454578303
75.15633666923196
74.6283904927803
73.42264855615139
71.08110327799301
73.05816459044632
72.86741761242065
74.57229908962216
78.60527683286233
79.92155120110357
78.36231327173545
76.78084024776635
74.78729095466744
79.06454661988442
78.79283297822784
78.81133808555623
80.3200740588898
81.84398123669511
88.03513387281816
93.13506341820771
90.05939189470351
87.5340692764509
80.48168989394537
74.91746007902233
74.09115623179291
74.85327253972258
75.58621570764487
75.22817315141586
75.02446244817261
74.74063805513553
75.83686548863191
76.56379139200618
76.38152397241478
77.48391044657183
77.56327948239307
78.92297084728051
79.02361090448562
80.00542887682408
81.63716551225517
81.6991571443891
81.28313160854161
79.67575722608402
79.92952471399128
81.35753307816475
82.27125726152752
77.53526679185958
73.19082178798678
67.97175794189819
70.32660146482603
71.79586894647343
73.85780911019391
74.30797753463926
76.83827235694902
82.27514669571515
90.01824420425825
93.79624884759455
92.26317077809202
87.71889354487796
81.41845655993217
76.76431754387514
75.84589102536438
75.42549592352924
73.64597842156036
70.89682244523365
69.22059806558286
68.27515803463626
68.5456051302585
69.55100285878319
73.05496083638302
76.82400863305534
77.78391059301585
77.76473035543529
77.16851128825468
75.82386778687618
72.3750658584863
70.38104249141774
69.91999599951086
71.88698180770993
72.6950054181178
73.19799369394453
72.90732677392305
71.04785430157845
73.95313448726407
77.3092954312638
77.5463292945325
76.3927391090049
74.38161940544663
76.9999955962227
83.62035222231785
91.58737344769187
89.99519618206732
85.4301026495879
77.06484237039325
69.48072150913447
74.21450099380124
75.80570007120475
78.66975663129124
81.51093729113919
83.71725895182202
86.129488703872
86.1034037431203
81.96978831534773
78.52494477861643
75.64420849702844
73.7318606796851
77.63167827603927
78.79425650740004
77.95782726611671
76.19532634994597
72.67028885542464
75.095347903618
77.43871343159265
77.41302209838686
76.45104442169149
74.37019340363597
76.22455208896102
77.56985345572888
77.00687588866839
75.18534991950634
74.62114406382754
77.47303746323698
81.07000887810827
83.4118904867939
86.85217666494201
86.34042289939897
82.57882057183055
79.84732464651653
76.54769250429055
74.18054383276329
77.81601995411299
77.24447370401259
77.72737111302013
78.13605052304234
78.11136362953418
77.46512974464902
82.74189577506561
88.22777715403957
87.98919341948613
83.91795540156619
79.48557661921421
73.05629413145545
78.10517734543508
80.30723835547204
82.37993150083517
85.61480489212931
84.84519562753043
84.34211544919175
83.169484791762
82.75713187977087
85.60049914246979
88.07130164565083
90.4126391203787
86.46255975977476
85.06945919072733
84.18221778522744
86.73853259285957
87.09985188175952
82.33714739267967
78.97604574695366
75.9835263107105
76.83508455736813
80.23395703941198
82.71191111626077
82.03719454519413
79.58913869817451
75.7488621837184
72.4589031665021
75.93214252791981
79.59240598100156
79.19709884839129
78.78891970728566
72.87775408164538
73.17651238932486
74.95429862249881
80.71890636789924
84.52159077607112
82.86947802340755
80.10455426369353
74.56706697632977
75.50985705401396
76.1837485223394
75.31309575948495
74.55961166820356
70.85526377638222
70.52294061167784
70.80726343771313
72.27395806725832
74.05597465129881
75.21054990629402
75.17956378613896
72.86384461822301
71.88402839545262
73.91527849965505
74.8110580131312
75.49265524574834
73.01819756652026
71.58108403423472
70.38544031567903
71.54409958712314
72.6944792265157
71.9603352222167
72.14212845710128
71.15200666187067
71.44179067332698
71.69675671203791
76.74678231706869
80.58414623498291
84.26791657389342
83.71087897907468
79.32813340124174
75.28607282568997
72.96811597231668
72.86842370456864
70.53890422788062
69.74408664799577
71.0677839944204
71.8510327403899
73.95312297583297
76.34006033735524
78.34638693367218
80.91785935419804
85.78841277675365
88.7909455517238
90.0493782357083
84.00304634522742
77.40408951551275
67.35343999340296
64.09688958541155
65.41154816599473
68.20963050989434
75.72646754377226
77.80026833329707
83.11881732220283
88.47783114003803
85.1513493884145
85.0857076653686
79.51109867713687
73.67879301263248
74.84445412983195
76.50954924170986
77.4491306110718
75.5797586708623
73.58990013747135
75.21419120385345
77.48890815137914
80.94562524573436
82.67723549144591
84.21663110733004
85.19695252884493
84.00213250686133
80.95931022598096
77.68342969855121
75.38512145308144
74.25266507001302
75.24661965804141
77.33325648000057
78.19368208438088
78.74496550719755
77.4457867355298
77.90625874083901
78.68026688595529
81.31196234442413
82.75830801092826
84.00536332593336
84.6512315058401
83.80723216366148
80.47336739715506
77.96167816665239
75.11355337907139
74.78472440017188
74.17731356192724
74.33222687478627
73.80809569079516
73.19035105279428
76.53063863837771
79.87341435089186
83.04234695996777
82.49281143073128
80.26280529304549
78.65868555319649
81.19787341499973
82.98291626707378
82.66543922481351
82.16173330461
78.10518195351399
77.59675432371718
78.10485587810652
77.31789579130279
75.71537589258627
75.80374613347131
75.68021535646892
77.5137300233563
79.28165879175789
80.27264203648798
83.1690068827918
83.53841696156746
82.27178491062169
82.96050089808128
81.92064964161693
84.41126963049362
83.06810353500502
78.77870765522877
75.32518640629831
76.27731131709868
78.40440829497571
78.86242452521395
77.6403239516178
74.24975947678905
72.49441797565932
76.41517808723283
77.67788686003959
78.73620096832208
77.72571848799183
75.87326543917612
75.27133320408103
72.8576655408239
71.65127865561892
70.04589187205278
71.22239052627383
78.69404873998559
79.67237201248031
79.77061769608922
77.83684389861747
73.65479287913183
73.4824118215727
73.22817510394911
76.22549013372462
76.506816400074
78.00554969511005
80.59705212901484
78.73978067944685
76.97855073987459
73.91497664471981
72.6336927461443
71.3439281626344
71.02864384081018
72.59839008467543
73.5899666279054
75.0641374345439
74.97907127286678
73.24718700679345
69.63863961003759
68.30193214293618
72.86637937699803
74.70464234050502
80.6783605141078
81.7514814707044
85.61638589043807
85.82498982354332
80.55674031158902
78.48306191557529
72.50354241232453
71.51627502510158
72.95708678256172
73.81308708304283
75.5393958202003
77.84446337558413
82.75500627801648
85.59794518919306
86.24646491062586
85.69872195078554
83.26579035889807
77.88658932946456
76.06820478436492
73.76573300655714
73.07239260614585
77.18481826397968
77.80205720200632
78.34697016969193
75.3944605163641
74.75803867215315
71.72770988887089
68.88591794041967
69.27519579178494
68.69319782481558
70.12410552466594
70.24809458933893
69.52126445471987
70.63018782626416
76.43318530760077
74.78424602445313
75.02090915527435
74.03017275287888
71.80705566598925
74.09519155686814
74.5309683154334
72.36688398335224
70.29575882407453
67.7893838587641
68.18346170128244
72.12239952967217
72.86888993738721
72.94695630076157
74.53933198273911
74.79437502264622
75.52941666410146
74.79306637908181
71.79799250496836
71.85873401458733
71.27445942316902
69.29077901074601
70.88975053169226
71.06516925367585
71.21858358636806
71.27283713359323
66.74762335398489
73.15133056048492
80.06371434690213
83.39765056654679
86.6131387341667
86.10374884192865
84.76484500967841
81.03021480179353
77.85911599861709
79.61307141773679
79.39899837403057
80.16930925562362
78.18249319183202
75.87258828941651
71.47030452121362
74.60315407787583
78.32539372184362
76.55559472330532
76.76354906872788
76.38461254698382
74.66579276508494
77.28189115552503
80.7495497434659
77.17005699948973
81.82409465604741
82.85792328492417
79.42231228507741
76.01909608266345
66.97242949410273
71.70070200360288
74.7482760406214
76.44636457565369
79.40524973826716
78.82425773862673
77.90040235421546
80.58562318194879
79.25949783830077
79.8903906926968
82.80074061387388
83.91527639179834
84.55281063830812
82.49430803231279
82.99929531997887
83.29362367809799
85.21537121127734
83.33814538421055
77.6035244846583
75.72768103357744
78.062129176805
80.36384116967906
80.82241165821472
79.03234583115373
77.455868344939
76.20091735948073
75.7223815392967
77.26413726904441
79.46696524805671
80.91117994719488
84.09954686835792
85.31329901679221
85.16167249669512
85.32928108225494
83.66973720342942
83.57115304221202
82.28508373171375
81.6321388021574
81.00454784845303
81.17113868487537
80.8611310948067
83.74345994643144
85.96620812657159
85.06099785944615
82.23621427951767
81.02316169315694
77.25845278901082
77.37156051335266
77.77510311673777
73.95201933992101
75.6234576671581
77.22216418642883
79.35273616137162
78.28990275697676
77.83510884842603
72.92451952808763
71.85738548552315
72.773060708262
71.3329285780223
73.92263804669064
73.88248753964709
72.95314090880947
73.53574821755558
77.27792100867072
80.88722534097036
82.3888898927679
81.04964308822274
77.69152452757916
79.82705000729482
78.22140303284813
79.03520618682901
75.9716316469412
77.93458998583478
79.48621120449711
80.34823177055083
83.03913252686442
83.94747460224902
82.04907432776545
82.36769006057487
81.10016240609914
78.51129908638369
77.19077875734729
74.82164322934985
77.11420445939964
77.12383362785195
75.87582181244426
76.29120791387217
78.83713744422562
77.84696399488736
78.347172166386
80.57196261212117
86.08439412290136
91.70666530287387
90.96440702154243
87.90289688914407
83.12217829229776
75.18917895603529
76.8544137606724
80.52753848605718
83.12886314995406
89.2766074866324
93.27148110467769
96.28264733396601
98.85424455901314
98.48226630091568
97.4902370432746
92.42270349581877
87.26568201804086
82.97979380916378
77.95113758597216
74.75298311318556
70.52487568266687
70.77865894354252
72.70006687585295
74.66422717344278
77.53530353693974
81.12405441625937
86.71608660228273
90.46385030835594
92.49340939651407
92.13508116023799
89.01441641476828
86.39326252128674
82.65193568988741
80.3090323633225
77.19757572901027
73.25223676307792
71.38618581597437
68.85072531464152
67.52961340432763
69.25039980132485
68.57763580752896
67.76799920424367
68.34786784497572
67.61549899319672
67.03942813773581
70.06643712885364
71.13629742956482
70.23699819061497
68.15041018331902
67.67825616767675
64.79660063686042
66.3105690573272
68.39645062882727
68.45052164786524
68.61826062778673
70.07164405217713
69.10772807340405
69.10192861998136
70.86407139884372
69.11395265602678
68.94578647323019
68.62437946879848
67.66120179741068
67.94146792220889
68.58504662733128
67.80299541310222
67.1947760673834
69.35768890518207
69.53397297677525
67.9731996262177
67.39577821285414
64.4543689952925
64.54325252848507
66.22172075582316
66.91059558118664
65.27276606214448
67.26122969947949
66.70587486303302
68.30079228716434
66.18652762536335
64.85140888542259
64.33123844597797
67.65914253560598
70.49534802281434
69.49807295337524
70.26264679610372
68.67496730564837
69.09769538372973
70.8417797400748
67.74938540521487
65.57302775264455
65.37341402958575
65.44468703278127
65.20556917574567
66.73689805140813
70.81187963596955
77.2776861386389
83.47252630752584
88.78297430960293
91.514069583513
92.04933253228626
90.80397859517706
86.94697029428198
79.71681682456102
76.3541408349802
