57.91516848266533
59.1418718794675
61.374449649167886
64.6746122992883
67.4056680802367
68.56857118931774
69.73363319042126
70.46053737321944
69.97596308771818
67.93483988782313
63.19303754067277
60.69611279476485
64.11939650896447
66.88869754814108
68.35733167865428
62.20663199778217
62.314949064445585
58.406790207096634
57.29269238896408
60.53769912859116
64.24923902113069
66.5690249366793
68.28438750185357
68.58657919178376
66.47190512864921
64.39328507125555
61.373337561925204
60.528658814786375
67.40649338003254
65.95443777839422
67.15678974773401
68.66498780498786
65.01616825186319
66.35538611839006
65.82262206579026
67.04628291353241
67.24674658426017
69.30671385500264
64.08049882613636
62.01457839904449
68.75661688244564
62.55278301624213
63.77499130706998
63.81012971903106
53.79985483670266
49.389948711486554
45.39897531222827
47.51686967627026
49.89699829632853
51.79416579306774
53.01017947214475
53.75931575401005
54.17226292469381
55.15363032166935
56.6469590750061
64.21013009916413
62.50878434347055
63.237700165910226
63.04094488211751
56.44113656818064
53.05648350323798
49.38146514727563
50.06443037119612
51.85052675819984
52.874408883397045
53.31572117651924
53.3572635111854
53.58913734572621
54.26691024089909
54.816485401433106
63.3795393665921
67.22350425320488
66.70272392427965
59.42558848235833
59.18718854343781
51.87465055268009
49.117505249580496
48.65283235643725
51.29137043393248
52.40876709574494
54.91596592927541
55.048437312376954
54.65920899808457
53.94339240729054
53.548035149502915
61.50627207160264
63.292586077170434
66.20161685684732
64.22421572690382
57.3905065830926
49.58926281300727
48.02635968871783
50.60154353416453
59.103011929288044
61.76039278176792
63.62206851999984
54.32296015818919
53.21571082195845
48.30139383437864
46.83332659517232
51.48782339028088
60.8643637109725
61.76255457797717
63.08097869204846
63.10080501576011
56.34596010606163
53.67033466022664
49.851785989155054
52.466763444298294
55.22165993723158
56.318917185197506
63.22042962569735
61.68153309905415
65.6635360918544
66.74872688122633
62.099990516221155
53.62778417486911
51.035232937043105
48.320925833893185
49.06407431490378
51.308062616385335
54.937049565686294
57.31187012138758
60.11695507674263
60.03084580041813
65.21811017859396
62.270487928833866
62.464564659997954
65.24709782960338
60.45539717324131
58.81000947526515
52.54124278766221
53.11746796557972
50.883784816072854
50.26500293014127
51.06072120769619
52.98784385174353
54.05286753218997
53.926461884976646
61.10461075476156
60.06187719754488
61.422752908949235
61.20172141276945
54.33362418058294
52.84084875781982
50.076803372100194
50.004759543857574
53.7750551007181
57.402054991539536
60.41662055628025
63.14942371058352
64.2977867738402
63.63914576082154
63.1015796015675
62.47839690960241
60.69851442202975
58.57337331858657
57.62398957329058
57.52517776652576
58.19377402124576
59.90895306180294
60.22535606441824
59.761576494340375
59.410568112070074
59.33421562841388
60.411465432745175
61.11220731335622
60.505715875783814
59.572465464568644
59.504609120161106
60.12090931152253
61.39293739290963
61.53884040594935
60.17187103836313
58.814147322950625
58.95796511231059
59.66609494444625
60.46023153128864
60.72128735141852
60.30684641956875
59.724156254611444
60.16874183733612
61.249614133052
61.561603250871585
61.22185250486046
59.03166475028189
62.00560721782694
62.173576488231106
63.108620504573636
57.50393558069667
60.25153393630721
59.1880503120395
57.66439878483305
63.31210193833662
60.928946682232926
62.16931848741547
63.218575683569874
58.20780829204531
62.20763714772058
59.52417333977922
60.56121968295622
60.944990162263416
55.03601869723105
53.50028826230281
51.215819860318284
51.67583274673302
55.70201244632218
58.32353034101662
61.00123924333119
62.53275259931579
67.62079907249777
65.97573847076767
65.12911530193335
65.52064205121268
61.86620755358564
59.59098552332971
55.60358394447305
58.25487319584941
63.39295703298653
64.26639018405007
58.8930483111342
59.9023426340706
53.897466837965204
58.129018648797626
57.979640018172866
59.914694522759966
58.593362521198074
59.778022758007836
59.1502286992657
59.32204908224014
54.76173854621063
53.25144601327207
59.57784786305414
57.7993712294832
62.93404544912538
65.40992616192315
60.7651968900264
52.90477404595876
51.82345833105088
49.48817199375091
50.17528380013456
52.054393796579376
54.426607598045706
55.078262057348354
55.937025593758925
56.44887863212721
57.448003160663504
58.34593014226508
58.29636109967663
57.950429529864465
57.3593424118753
57.105045370699514
58.12050372357991
58.27766200758307
58.74621924524575
58.56040052717147
59.24478568335195
60.25121455005904
61.45480005835156
62.459973320266165
61.683887129163516
61.09268823334782
60.87712445099512
61.36630799176411
61.42502288102462
61.12933077775916
59.415812113690485
58.336915838338086
58.552558875547284
58.66044322352626
58.697541264229166
58.10676770063477
57.58496790966773
57.80975779619842
57.89664199346418
58.14837126410598
58.17318645907498
57.44762971880865
57.319668988486576
57.631942573586514
58.09799762497937
58.29090814430015
57.44816008905489
56.87140398715061
57.285009042481015
58.1363037613722
59.520359113423424
60.585834904844354
60.31999927015986
59.711334751720905
58.71009475286183
57.9398211265667
57.99836898172472
58.79554307036409
58.920107539104364
58.813621418450516
58.5820952752902
57.56063000826217
57.08620986827041
56.3235228294218
56.205308520147526
57.559851197594384
58.80404002662
59.62997528587723
59.10782384387806
58.08515545684902
57.38454738234612
58.209657868031016
59.27140683183801
60.36478812284089
61.483886918051894
60.92179377393308
59.9962822438568
59.899730155078785
59.83137057838798
60.73476521828864
61.12461743948181
61.500983169164655
62.16077490935104
62.37647357968518
63.099518032950726
63.73869419356663
64.41431123587407
65.54865685469707
68.3682862460551
70.13070431545336
71.5112751341843
73.75000790948681
77.55614646178064
80.99748267973085
83.94406400333973
85.17727816132272
83.20325769243138
79.29180541058038
73.72100433270163
71.86480991192859
70.89324411224143
71.87765247722554
73.31583641918186
75.61145529821833
76.91628823554069
75.89669228148983
73.56277726862783
74.15602086652649
69.80731002640493
69.24178347117436
71.51512757743927
70.49533883206253
71.57809297716213
70.99106871757817
74.43149277148487
72.64409301784423
73.716545112591
71.90637480537707
67.9453652728999
62.902248923028885
66.02990173185097
66.59696240610468
70.34038380158253
74.74311815361408
73.68626762291107
74.24136569209186
74.28868499379175
73.3632653040848
71.46287110267268
68.98127895090148
67.94543226705544
70.67860713907979
74.05386937067237
76.3892614002153
77.78254500351498
75.83770332288654
71.83095456932026
67.18972320062161
62.749418351763644
63.11094567247669
66.52122926790501
69.03364266058526
70.83234120920098
72.2807483148024
73.08783665967547
72.55248225565937
71.87967223667299
71.8307720595695
71.81439332374981
71.80319395074058
71.54895106832643
70.72765145785363
70.38471885156582
70.2491862359537
70.13297785356463
70.28202692054269
70.48432045282209
70.12947482423405
69.21513071258619
68.85306150623705
68.68685437843871
70.04157137167932
72.45828034221235
76.90493511791034
78.56215567957328
79.98517449794774
78.11570711707479
76.16548088626837
78.239865961696
79.052998232378
82.08927381161546
80.65502744690588
79.47512077906129
81.05776554576829
85.19279363756714
88.40202397026565
91.35839175004732
93.26395249361605
94.48479736288851
95.79826204069354
96.86064987459713
98.43345236199116
99.34335283058886
100.47027702434224
101.80076086804442
102.76304125912381
104.37111361224589
105.61584962953208
106.50334179676467
107.21265895801501
108.04341442194621
109.11967045698826
109.43825948082642
109.96467381200476
110.15919410650555
109.37911442407875
109.41898042948401
109.81012581122494
109.84905424141488
110.24643494001455
109.98177941135306
109.47575290192884
108.9123701588466
108.96402271718254
109.30951800765754
109.41671273405383
110.25394480251605
109.68266033994799
109.74890033937277
109.86399548820845
109.86846909372096
110.30526960911152
110.74463604474468
111.46656026574736
112.13721941436896
111.96777077855783
111.45021174121759
110.31363200714426
109.96618760365725
110.00275655090135
109.39056713277007
108.61060529476607
107.7259621092545
106.69420953215688
105.50054138582139
103.72666691092128
101.02798339278388
98.26366187641253
96.74906984325071
97.09885710164508
97.78785392814116
96.34810549959543
94.4705353868974
90.36289994056814
87.0127918463285
86.63958318840051
84.5388436621213
80.8387394206239
75.79986100268162
70.95479271858972
70.9336697916562
76.07581113062378
77.69289695571136
78.73161545686473
76.0860176808497
76.67442922709907
78.03208713178947
80.25177599832237
77.25136843211835
75.29597088672959
74.10735939748486
70.86073354297992
68.28560146677626
66.51393665469992
66.99065561012901
69.31421979638937
71.12021160964969
69.92543981842336
70.23376493183606
69.75647376823956
72.02029029736897
74.61837337249196
73.86735624444954
70.17528308157522
69.4502032874867
70.18996749601166
73.35798599262829
74.50590864652088
70.50236186739042
60.518277095495286
54.450351301867094
54.72898230669383
58.82852359673679
63.45160936592438
69.31849622435266
73.40065720077085
77.45671381709786
80.14505242781964
82.51831518147512
84.37399787276215
86.44050716803574
87.0134921682514
87.39712885659232
86.52891251919266
90.29898169429997
93.99463996170141
96.76151777637985
97.85890619133038
98.48990005138025
98.47174952737186
98.539718050035
99.69587638540469
100.43340866641695
102.39324883855672
103.57747823395022
104.44797238874293
105.96146414510525
106.69919109867155
106.99988637510214
107.57187151939998
107.75319162616266
107.52077260592425
107.51826219118941
107.6262593842295
108.00622869429284
108.50702499263227
109.4767283957398
109.94880201597643
110.43084961371537
110.85496660638918
111.3912359271951
111.53921937996745
111.66431657448983
111.5868743353286
111.03942766856187
110.59964572416241
110.34409805190094
110.27415799175427
110.59079873894113
110.30172612108989
110.83504202811608
111.02242826856471
111.25110250593346
111.59845059163774
112.24154328645459
112.47430385086955
111.7606791838177
111.71006662338323
111.10581541495472
111.11978071938104
110.20037193413164
108.86109118197358
108.04518550346732
106.44080251541826
104.4222902414161
101.7699779487988
99.443624964
97.58067213517934
94.58376746937687
92.87762364536331
89.87924387034799
87.27326246714372
85.7928005480236
84.87895545701085
84.84275539048161
84.4513782517017
84.4740322717092
88.20089681178041
87.55655635190618
87.80597146591849
85.08458870084944
79.7774231576969
74.87619159935906
74.66644969172853
73.30398208056499
77.56298019235156
78.48843285196648
82.55273529676317
81.31135580953443
78.05750497396913
76.50222955817995
76.81895566217639
79.01165643827444
77.38331318572253
77.44578629703865
75.13887240086225
76.81701079716105
77.37258035159886
79.56915681506692
79.58754933423513
81.79126601643536
80.18907644309559
78.02367602073612
79.76657863360931
75.76179336864307
76.3713967145133
75.52024848711245
71.00901756663959
68.39841413607408
69.00408166693467
71.89364410499147
73.99238512008783
74.01037406115942
72.54882706534107
71.5063934363198
76.5768851173938
76.13663698751132
81.16342835519472
84.66821058275713
82.4586670042971
70.96702785526182
63.305405284050394
57.427511390455415
60.35477680494648
67.36552393126142
72.35017665971625
74.79781339519076
78.478797485811
81.50431495743874
84.13120781931428
79.37422653463604
82.74153347837563
78.0790386590165
79.07092277575325
85.37747377419741
83.65762389340024
83.01769221502086
81.37632609704434
77.7555633611222
76.41440945151055
76.78714416642963
80.02565555406787
82.65664920519032
83.6108815058417
81.97514206495268
80.08528326231107
79.2651896905596
82.62733406246359
79.11418278264016
82.13478785252205
81.72802197430343
82.76804401230923
79.76227137977176
79.40965895782244
81.98245879951531
83.67215831041514
84.38387580714755
78.20449839841949
74.10393081655896
66.11023517868074
62.79393916188911
65.45430954074337
68.39467557148525
69.63357406126894
69.45815550600334
69.60849062868682
71.74651225155411
75.97607671650658
78.99837325841557
80.57745928225431
79.0438195194429
77.92771394966861
76.04943839961922
75.55806390417642
72.67852876129955
71.87996449508904
77.92819477373541
79.90944253903108
80.42620055369147
82.84571873294041
84.12667381565058
81.34722348683883
76.35273987514428
79.97461917605277
75.73576477607982
74.59916527690919
73.77401099422585
71.02529653903572
70.84836750501256
76.22993175129321
75.93636524419128
78.3499078145486
79.44429895783318
75.81158009689393
73.7855599028611
70.92630276456296
71.08944448942435
76.0417398939974
80.48890811642691
82.66681026452747
78.63630266892594
73.00206617460682
70.07160102457628
64.03518704975355
65.08353285307385
73.80747510399742
75.03063177750921
79.09880894697226
80.44094150941628
75.6045347886208
67.31732771671216
64.74638659825604
61.0917384944835
63.82537795876153
67.77087653987317
71.47870784306649
73.31289035543207
76.49216471143694
80.10445680634797
77.61797851211944
74.43832341081097
77.37648570204941
75.63564380885246
75.71385806009613
76.1827683398626
78.02588355219264
79.46331819270827
79.74725112119941
78.97354971182685
76.4916371981704
75.43274017257411
75.376004376493
76.29599923519838
76.73938153441321
78.17615362136306
78.47497593052745
79.36683789884175
76.31299768046392
77.6575763761673
76.25031956790001
73.86760235232481
73.18704532594596
74.97316598520672
78.18768909221147
80.61727295845162
77.62926575789663
72.7116895421112
65.7603302452091
63.69212755634318
66.19470096874711
71.86993984061246
79.40129099924937
81.8734205788565
79.93765320991949
80.8947127391623
79.160872108719
74.79322460502142
72.06802422715154
69.41048545571897
72.09525304596534
75.18345348629573
76.77223622483204
75.76843888103629
74.05785892418973
75.17520173045207
76.61745686348002
73.49757623245867
75.43959147063886
71.90279180900804
70.88009611009427
76.16951331005986
76.00565402379424
77.54419601759568
76.84777116436716
72.15564689771226
68.00024161608422
68.98227632973658
70.74008011993652
73.79598544315918
72.0868260130099
76.06652860185656
76.96178377484054
76.99297723669093
79.94867988844243
77.91666907753876
79.61153180330598
81.21950374505576
79.56264505627875
77.16717707635354
77.1975637844232
74.35424126883935
75.50298707034517
72.33982617164936
75.75172663139459
77.1587551793356
77.41829016573632
76.29974173087521
77.18403490940513
79.05276127954039
80.86091060694032
79.3151313161918
79.2200279140655
74.27128151238821
75.045532815115
73.30867890650136
78.31369342277158
81.31239524328409
83.37049817720143
76.99939156664507
73.34234759005577
73.69321004914102
73.28952586398859
79.23411023221823
78.10606246280048
78.15324817962745
78.26795594301342
74.15285686861998
70.81171828583825
66.25099820616379
64.62570267428876
68.65775283080862
72.41441231281789
74.37845321960715
74.30631547137315
72.63080800645582
72.57956306585845
73.56911276555918
75.08377681578293
75.86919691273917
74.63869381926051
73.74984996860941
73.52604111764535
73.11542510090862
75.37844382145335
75.97766893308982
75.92380067770452
73.70788904599955
76.69992203035602
77.2238134462705
73.86389141309992
76.0973555163115
74.84310346859787
74.90915354870447
76.99776433780751
78.75559530915552
80.77728319353643
82.15950790403679
83.7103308318097
84.18990166117683
83.14041379215355
80.05341652922098
77.37721087718808
77.5327357938638
79.09297106809215
79.41525170248894
77.76552136514871
79.06424967910026
75.10647804934123
75.26771757472717
74.1771380583757
70.23301295770807
66.79718109928041
62.39099936093133
61.262447056657784
62.99691718048483
66.25214945351058
72.0372134205077
75.40037355470116
76.77399944708361
72.38424547528246
66.05547068579284
64.5039063559575
66.94053701670178
71.58492507813841
76.25720085487976
77.91778889007152
82.12313039219075
82.09113701132279
84.54933755552949
86.12109652645987
84.09055102929969
81.78369481174296
77.92917295627313
77.29903134366778
78.55028749069693
80.83152195670657
82.68789784714197
83.32632041723085
83.22110485467864
83.19426416322646
83.68752026919664
84.74301009731
84.66221636700203
84.31690550793385
83.26790171787775
82.12039928560127
82.21967171739547
82.51292053625006
83.11164910259492
84.43613060323351
85.35074733783871
86.39225048660822
86.39638340437688
85.48923644088981
84.22435016894794
82.20883034530968
80.85542215215037
80.46738467115698
80.78969465048928
81.57282232151348
81.68433765315528
82.34269859078404
83.24125960030534
83.5213011695653
83.58489128584439
82.93134046591125
82.62232397486795
82.37268857214299
81.87257073041266
81.745153661273
81.07721425947778
80.35960133717472
79.11092939730098
77.51716527121654
77.01790429727839
78.10736625847667
79.76583533388305
80.63973478290035
80.22710993941449
80.75166248100386
82.23079385944907
83.79006227813021
85.4145904646332
85.99987831287181
85.65294013543351
85.42388665548553
85.4053612461816
85.34279272378181
86.25032506780907
87.10509556308807
87.7708695506029
87.63821299950122
87.12855623329779
87.76650181941558
88.51040121992118
87.52577546509501
85.86898607344368
84.25050685283469
83.97209055060287
85.23890938816002
85.69268269060679
85.05533653110987
84.43309481757598
83.79211889716643
83.41152180736654
81.88195191448372
83.26377362532624
79.49507651312939
78.93804245483281
78.23281973680722
74.49488663861679
70.65095195704296
67.81605502559597
72.653891684285
75.80249937038771
75.06507931852191
75.28603670016736
70.14749901318092
63.54505400400155
61.75745077801694
66.05783551079463
70.93800246112194
79.62078894279486
79.01633964556525
79.43104844831126
78.99670246189002
74.36281572357984
75.03031558593915
78.33550842856806
77.78993726593791
74.85860336476819
74.4003512514323
67.50423685890865
63.05693246605433
61.55254693136866
66.14271663474275
70.52619245918794
72.32302959549322
72.93917923607553
73.38990197819663
74.4983673313389
74.95108730213116
73.69287662970669
72.5410498759892
71.54218097495296
74.10846507333785
76.33055292141293
74.98683089128514
72.57263780379066
71.34873599581947
73.6744569335542
79.69742259218904
84.91695272340876
88.71599914429045
90.10793467048566
91.11266619106186
92.18793908900018
93.01251324819556
93.45285113276879
93.18721755273732
91.90340198234803
90.96142369158973
91.07208707465715
92.10530228667886
93.508028527862
94.62236421207484
95.09712883286477
95.27654283667563
95.58493677587835
95.89850644090666
96.59498415629628
96.79564677784207
96.7021845382473
96.60836436548709
96.71566871051645
97.05702001686932
97.11365856304764
96.55383733605315
95.32258572036595
93.34566479391273
92.51243395389677
93.81356638707445
95.53217547436641
96.67879377568384
96.48487270626318
95.27053749685096
94.27474976451617
93.5157687763187
92.71028816235474
90.92294940350676
88.59311120832307
86.00863153429515
84.58213713724675
85.56983798847368
88.99420846185757
92.9314366444296
95.61468807339298
96.46586591515296
96.33280731420696
96.72839608432469
97.75716704406204
99.85116555770121
101.58204645889136
103.56550539868593
105.2169771165454
106.59929420746845
107.61184455203151
108.02436946989272
108.34240795728773
108.13394018641796
108.2932265561016
108.5092206264937
108.67986520008428
108.52969080648852
107.66809998096691
106.9738730769153
106.30182881264159
106.27812873486768
106.96785080727119
107.44644312438822
107.50798865007533
107.19424659952915
107.00290712669637
106.89405224353501
106.79426103408103
106.36160542693746
105.59856849549881
105.04281487777465
104.82033256789897
104.24722877622268
103.66111745999169
102.86842188999465
102.11864705432427
101.91478690182662
101.77145816862027
101.1489667265849
100.91291329405654
100.10875279990954
99.40425495792225
98.89232958503169
97.87110424508596
96.53709850014769
95.06422477408209
94.34976618349184
94.2436314390144
94.0031537672751
93.45300946988368
92.68743675437437
92.47837614238877
92.73987672591846
92.85005525448422
92.64654320818752
92.34717039501805
92.65762677874982
93.8089488233756
94.81080292955171
94.5952106923376
92.69657591152048
89.50775974593044
87.95309572235897
87.64033545174591
89.49270657141007
91.97782795393292
94.21241817199869
97.00196064225935
98.55973783170884
99.57285773729978
100.69946881298856
101.7780735243503
102.78207282577705
103.67446735672064
103.4826112156228
102.36651377739119
100.77189166565955
99.25740454028092
98.54569714903157
97.94865341031844
96.89787658455924
95.89700510829975
95.36281594949334
97.04721643235384
99.77134362741201
102.75228252287684
104.77676805663351
106.72557680823964
107.04105760267717
106.67238877667151
105.75034493223802
104.28593637983832
103.66324390233012
102.72840319228891
102.28522680831851
102.1479597587764
102.70212655405209
104.46934887576951
105.3571205467203
105.77858310576326
106.34562626387054
107.52611158662558
109.5742861696436
112.11957206203638
113.52657699290013
114.89922100674904
115.50237151484798
115.50274169251261
114.95131436177455
114.34592188756419
113.01110477570334
111.97050246217694
111.49465347658688
111.86096947165774
112.37280678029977
112.4997918314685
111.92409095929861
111.20754691805881
110.82258622879944
111.07447203239208
111.30527328672726
111.49541888244562
111.45386734815521
110.98342939743952
110.49538039742177
110.28573141619168
110.40231343724162
111.21129753298881
111.9227076193167
111.67118527090773
110.94541841144073
110.04152044450416
109.6039301848327
109.60003843662619
110.15724542012431
110.5094203563485
110.18501227861826
108.7526539141137
107.22662509356377
106.14007581191443
106.24324393286112
106.5109287030772
105.83988434305788
103.82961568997528
102.58152915485113
102.20500002117488
102.45416329019164
102.88726299010663
103.26221067083753
103.33005381535638
102.4447494978451
101.65846255308226
100.30788432790524
99.31929992520749
98.3804648733289
96.69247779182479
95.01408664939741
93.04731909438622
92.27933192921495
91.41528536191468
90.10131373164745
88.47001651158533
86.21546322583092
83.25469074498164
83.79775231128974
86.58571395356913
89.37071206782468
88.46389717895158
90.9691689345053
87.48170714552607
82.06593167038652
78.64864208765515
77.93046589488318
80.6620925398106
85.71758513151273
87.52847176475613
89.96361760898685
92.06754970751354
89.10390996817468
89.12690672261301
85.8385693372131
82.81604304487897
77.12857812962932
78.98732774980144
80.15261581685395
84.39625724143663
82.41541312480128
82.15838779916388
81.78976023822254
81.30904713148169
81.2735627061005
80.26320319538762
79.86316154055243
80.73025737574369
82.81910050363487
83.03959249292649
83.40649162156305
81.63758390076066
82.00105001646247
84.2239202333038
82.8877630885583
83.20122069377189
83.73460419055462
80.1285836016597
83.28439411713816
82.1394988035309
78.85263876616965
81.21026227037287
77.93233112767462
73.06911572926018
74.19530141941901
69.29899871229112
71.31810489044494
74.73729341523119
71.87174862908776
70.72745548938869
74.40323155187264
72.19562791978156
79.35975429926911
79.16678264272481
76.95018944166688
74.72419431738993
69.08866592466816
66.35556313152199
68.24914888626985
73.0465838290363
76.09970270626756
78.49484213912515
79.01905640463853
81.15927797101563
83.87499966555178
86.72327204668096
88.5670246727291
89.06199754921886
90.43422350313793
91.79138308023731
92.90789627499142
92.36943198987291
89.8945576837467
85.96191305276402
84.22471422575616
86.45057458703818
89.57021792517467
92.70352963232736
91.01810185464356
91.73631185375815
90.3750542124067
91.40462982023347
93.10186691627706
95.75824083798608
97.46257478709397
97.82055683914065
96.44737615372372
94.27919784019868
93.17949971828749
92.8303475123398
93.56387056339955
93.21061842263225
92.5159039083626
91.36720110841479
90.87590171979042
89.30202313138153
90.919526645093
89.08268245949328
87.45878573303266
86.80241640079201
86.44516436306485
86.45593470980367
86.12375898294525
84.29674706771821
83.73504416775553
85.85867260399361
84.53220040675018
86.50771981660009
90.42672910433002
87.03436946380245
87.21409225549156
86.56828245901366
85.56282421735511
85.9860017228711
83.54203588357264
83.50972415602446
83.02280308298046
84.19076114140984
87.43521539091036
84.00329555897159
84.71657559111182
82.05761542612755
81.1250322985999
81.67090481484045
80.42617291709368
79.50077402359811
81.13498676949919
83.11997759968125
82.60934443794054
80.36712043699023
78.82312130559677
81.58225646095704
79.24783259446437
72.7503742050034
82.14539491362675
77.11595870728804
80.26641267829162
78.52284210318442
75.45403134970574
74.30985067818943
76.0094208378532
78.05278313446733
80.26590901103148
82.15099175149975
83.03266544578688
83.64429871941036
88.12952202374552
89.47763527139496
86.70437871252018
85.88076953671896
81.83459962336534
77.7134323437533
77.88921708022639
78.62397463163347
79.2285084271261
82.54953513100176
82.79583746816992
78.26895706835131
75.02531854934006
76.16339958285876
76.35623857409718
81.36694571138622
84.77408042194887
84.26644583424368
84.25428028163317
85.43035433913816
88.47944109607613
87.76061272892208
85.40179297063999
86.46588137374559
85.97265265867621
82.114926919516
83.5736337570286
86.38208647651966
87.63895634478573
87.36419489448801
86.33757170563658
86.4877641396927
87.08260243864487
87.57672131674757
87.27381622217308
86.86302730310871
87.28624756112131
89.38841041966477
90.9450136953635
91.88933020192047
89.41371785124089
89.34632276634483
87.28646445750778
85.12581418890935
83.1278631526294
83.51012988231582
83.50057259184418
84.76907952532915
84.8756282918682
82.72807082667464
81.12190149607571
78.11772947018574
74.73355298834666
67.98408032258978
73.83491987828295
70.6632072929516
71.64222627846092
71.22609900336748
66.36513885257172
70.99062918998652
66.84660323346064
68.26535848881733
69.47759335697269
64.71869972339395
70.17481396749216
68.22927956777289
71.46154323109656
71.19351638052686
65.67119127195069
59.727187762815916
53.46334907908167
54.80956562048673
56.98061934918622
64.92094681451731
69.79463538481461
75.35349983382238
71.20535782442025
72.24238697219481
62.925481631196966
60.575014956220755
57.83755307021523
57.67475290310832
66.17269076338586
65.6367251662529
68.84851619104982
72.16858586025847
69.70555771680488
68.40515850028505
69.2616247502965
69.56787271286757
73.11742364725635
75.5034495766003
78.1013870420781
75.6653478543332
78.13975823080068
80.76991900689953
81.62735039885332
75.97069182506722
74.65468408734714
68.8894856975075
63.124330807342176
62.92258310708275
70.67838263756116
71.14636347635388
76.58352286898838
78.11359645996117
78.47079476340139
71.46734056978815
69.82447435797091
61.58049831914581
61.869339826502895
61.9077077948359
63.23603647151763
66.47608929296372
71.95783175960759
76.20901582315611
78.59258943241313
82.83782833436062
81.59741245453047
77.55073626805972
79.82239283831802
75.88286280711814
71.3064844762014
67.40895292973738
60.19779942090611
59.38964686373788
60.119018108875146
61.81579752314883
69.63427121084514
70.60480380571123
73.41453212265188
74.9482959487788
75.47901231937253
72.09796547384254
69.7267299993091
70.63738304764601
68.74620036593225
70.026403716773
70.74820034903331
72.10122854413905
73.2976332735449
79.44831248413452
80.43612713292637
83.13672483961734
84.1734919573637
84.5468962292714
83.37898120749976
80.01865270269863
71.64784212674823
66.71209743800618
61.39419451008451
62.30101527441051
66.74489525470995
69.01528610835851
70.80686409634288
76.89098147100503
80.97690705616984
81.46284724486311
79.94217591400714
76.33770917235275
65.98425986031722
59.22549229039852
57.31682468099873
60.24744108181147
64.2271678550162
66.04138049596872
66.15733500774672
65.71379873258792
66.45104399347522
68.8778990411229
72.80455738898429
75.48405707553466
77.42578878789638
76.09433954972792
73.676001391272
72.15666530052061
73.01696884758425
74.44967619525971
74.95235443797017
73.23261079833934
72.52245086715146
74.68260517266317
76.11850078274026
78.25354019171465
79.9455867151139
84.5426518396728
85.68591145786561
84.6195085772782
78.75898621493276
69.43823032748782
63.06064349902724
61.11471387058844
64.53385276757786
68.92720321051262
73.64828175588937
77.2974075559254
79.43550815967548
77.63828023293296
79.11515604707576
77.06134866890187
74.69109518842508
73.69185392950486
73.01469761217939
72.4913817364564
72.60397814976533
74.62085095593966
76.2815041276626
77.87307112296018
78.95314217114539
79.82062783233603
80.94080419661444
82.46885947018882
83.90164983779678
83.08903501575043
79.00889860072485
74.63734226693657
73.68586818192593
76.47577784203675
81.617477673795
79.36180472010523
80.78285514911644
72.40939676962763
62.6613323356148
57.702071533687395
59.21742914598934
67.55168337377502
67.68203674804619
70.77970620626175
72.52205520364527
70.87393273779816
69.86280716857944
68.7023810055906
68.00356613737753
69.30427578825538
70.6226089860737
70.7393344045071
69.8927716226543
67.55900038313811
65.88533648216954
66.12246960777709
67.32776221437503
68.70418010025747
69.90199301583307
69.74482521766696
68.22336193565874
65.88633491974622
65.09404223821551
65.39107013063501
67.91818854226426
69.07198679341556
74.26056598937508
72.96967568994049
74.721948115993
75.66927475971104
72.50081197212737
75.03294640003585
75.29564781755424
74.78595647069821
77.74952656470191
73.91215589350946
74.9365747765837
69.4866246343206
73.27576503189026
74.23083226549039
73.01827019289686
71.9240605136525
71.40409874444785
67.16760268733096
67.3922816918632
64.3489523055461
72.18029838868739
77.73206019988834
79.98339478792126
76.24652982877964
72.22361596211275
61.83660128482315
54.68304188335542
58.69064215164888
65.15652947213184
68.05934861269516
68.75423068605753
72.91980356654621
68.86190749174797
69.98825475357808
72.05796257277764
73.9156951401253
72.41856240904183
73.97076047933149
76.07388874503505
74.50915338363599
78.32669385915561
72.62756917210532
71.25516417913235
71.94903260963692
69.33628020472894
69.57434145359551
69.20480839461655
68.51561935907617
66.20014114674065
64.43416371895574
63.74634903397711
64.80601096119179
67.31065985297894
76.50079642034878
76.25265163609458
76.40637911556774
74.81745413599583
68.86809525041679
64.90587762042747
61.51899129259485
64.94738477241066
69.88525147939147
76.93607911921201
73.03013880371508
72.49834040941909
73.59384695363953
71.70807482940292
68.9559954495318
65.11491919747976
65.95898892290214
69.41622615364577
72.71791706947099
67.27501655893798
68.18923581012626
72.14874816310221
70.48762409217603
76.11095175646234
79.12742567977654
75.86355799670592
67.2424743351457
64.548555184632
59.18852186320157
61.25861008817116
69.52445538237666
74.20300441241406
77.46661421523736
77.97192894173807
74.96446519828758
75.71702968856343
75.39984669117129
78.12687505482727
75.40812300498837
78.54528181284348
72.01783729971861
73.48131214261898
69.923276406415
69.31377075652276
70.3184593727564
73.11047245185156
70.43587143473016
74.27104322980239
77.13630145202916
76.38046637781176
69.42898582801134
73.11062130657405
67.86915760992083
68.30985147787824
69.930130667332
67.29260864210077
71.43755188957932
68.97449158033176
69.9609595229497
76.45650562993816
73.6042546621404
73.82628197388523
78.24656389484699
73.74308404673002
73.25448388320703
74.8371793968712
72.99513955596242
72.48727769285702
64.7124994943301
64.76814554663238
65.25137809976215
67.44030287794166
71.15087648454033
68.07139868781876
71.46696205144136
70.51941408375222
66.24529775787991
62.6183121883303
62.01801987877029
64.41954062015515
66.65852033433355
68.34190072119297
68.02309608054726
67.86882396976026
68.89898587327568
69.51306272491024
68.97732172601677
67.58425612100379
72.49990705958905
71.58964932992919
74.50259986280757
75.30057539975026
72.08535096298019
73.43344295882612
73.08385079732186
73.73196027738354
72.37336769434658
71.57709406384808
72.63835871779524
73.86806070723306
72.4583155667305
76.16638555771974
75.1172991487457
72.60965941139625
79.09116023424389
75.86852289434309
74.44401028352286
72.29758130834855
66.33126615115643
65.19365069960922
66.24412629627366
70.81370737646228
73.96317160001833
76.98486427292293
73.46539075167136
75.00354728494399
77.38288146078017
74.60320030350611
77.07877744558455
78.33481075606346
75.18755229369873
70.84988135754487
64.90822765636551
66.98653418172896
70.65101158369959
73.48179201889411
70.55867671814951
71.77440244827329
70.0468514501026
69.371391229555
69.56003959579603
69.37545654456846
74.13822028249517
73.11948033688996
75.42666485508045
76.02256082765383
77.5758018487777
73.03989522266954
76.27145159479562
76.16482834875006
74.97510697356032
73.28346600889562
73.92401228972193
67.17173504790033
68.09196861488175
70.58801444193529
67.90867016035232
71.17504000616921
71.98459359087849
72.32670135482414
77.56175485306201
70.91273581854978
68.58851167932801
65.7469112171693
60.313608155754515
63.06969631785387
71.16486046981761
71.63961614445525
71.35339477655315
68.36440822164428
62.8303041576977
61.96729958616697
62.321499967397514
65.35440920056354
72.71987318614838
73.59444886582504
77.46216025995899
80.70809405494116
82.0960720706284
84.26946642744188
83.96092843104175
81.61240010617611
78.87135810350838
75.76631764652586
76.07035244805685
75.98006831844549
72.18411922316305
73.41746866568354
74.44930461180063
77.23388235854019
76.2554163822866
79.56146180741946
79.0267261384649
79.88641225528343
80.18184015143818
81.57816181646658
82.50010279389831
83.32097589863233
79.78660298538396
78.56345527817365
82.72887367596327
83.63821804266844
81.89892258217624
84.91227511182203
80.97880770685308
77.36732274150086
75.9100883144544
76.05163796455105
77.93503642112822
81.29475085139812
85.90048746995323
83.21774459297514
82.50175479660405
80.8220320982909
78.12647158593145
76.6976808686653
76.08396024879589
78.90248766069325
81.59783749683183
86.26431625737185
80.91186220309501
83.43437292950284
84.52789777069364
85.19240438686867
80.47623040784308
81.50735196303899
78.97811689740857
77.80474744525264
82.64077483198737
82.30981774687993
84.45313405559662
86.13419524596712
87.86681202872273
88.9842849606718
88.61618056732185
86.68819989459303
83.71280657385338
82.17184021274275
81.22978947703452
81.15022460715655
83.0651844066435
84.47232110064022
83.17034291637998
86.28283508784901
85.81123814014836
81.29240806470489
72.9429484511297
74.22728781856688
72.5877180992135
78.02621077851529
81.3688641263307
81.28505074434256
81.15398128916127
82.11615211013715
83.6712963686283
83.98277015309414
85.91998061240287
81.09104702861758
81.95647651325335
80.28330330162674
82.64693071224191
83.32699456125803
79.6369063683831
76.28206449130867
70.26350977758452
68.12527942680163
67.94824392284124
68.41736407551291
74.44992298105316
72.60187374531986
75.0762312288363
77.4139569133774
75.84658819357638
75.28780022664684
73.96452651853454
75.44359205501807
80.68954996295898
81.6920799922367
82.83650343679142
80.80235572324665
74.19837704120647
75.60675091917021
70.90689906592179
73.08955692280028
75.94968677545809
73.56317392689733
72.42152711286124
71.66517580959889
77.80273753177906
77.79269076120924
82.48418453446052
81.49017579277685
77.84479723866279
75.20858763776408
71.51858700886099
71.45131918518837
72.67058548356019
76.09084592785514
77.7701221852473
79.12052786511484
79.40552730644362
81.68975371330758
80.59909425252079
80.45158506431167
80.53749810477441
76.67091495590418
73.91148773234433
73.91764715271356
74.74903312318379
78.02335990267005
78.928180048203
78.61101137281406
76.02303042913744
76.84448962700472
76.100466574786
79.39098805794583
83.47262239710706
83.66363954357499
86.2160302902035
83.71080144708336
80.50411240565319
71.20450136741529
70.93023738290964
68.18804649579866
69.38641658119317
75.33219646198938
79.14376166043012
81.93478604113844
78.00496968860729
77.87702826758502
72.65299631884045
68.62625434503116
69.36731460795039
73.39987963362067
81.31051106670749
78.64508589527563
77.07512648524921
71.63420463731958
64.576278778471
60.14164001056002
59.53000150501085
62.98621861895443
67.73408994815286
71.36973177286913
73.30190123042
74.61911074536766
75.06944822974191
75.31633241901392
75.6520700139327
75.81970752853817
76.94296926316355
78.18122302622311
79.106088774564
80.87894533915625
80.81464179372541
81.08767537719503
81.1291077540044
79.3498662234405
76.84714865404607
74.64587121033534
72.5133968709131
71.86070601935285
74.41569922146799
80.11352136350564
84.32689581113914
83.19835354313591
80.41603461855779
75.51025149774887
69.55067659832865
66.5411488852435
67.55214516889603
71.95353316065729
76.25936012992486
77.4677363713612
78.47396725676789
81.85985664148866
79.63743585527688
80.06295681130887
76.2602907173879
75.64349355366043
70.32749519755747
69.14260865674929
70.21230965704528
73.28315216554691
71.08540851882958
72.20977686036798
74.25368977685106
78.32231411236707
75.70682563195705
75.91801685948221
75.55188792247009
72.20480197134685
70.31527255692983
69.14262573873637
71.2039895448817
75.02568322739569
81.501001853282
80.67994908002353
81.33404141896092
80.78981833878183
76.14769540728793
73.6495435499866
73.00564989043984
73.80899635008957
77.3457280370913
75.04614335399515
81.24852761227581
78.92265969938693
79.1514495259506
80.14423880940899
82.36024116414158
79.11809132345577
78.50416505914458
80.64475326258781
84.17901649339535
83.85975334636956
83.99760987605833
81.96683427033385
78.33148733059562
79.55327127897108
75.64167838292042
77.91408571069377
79.32468941365276
77.98822891506398
76.78216041681355
75.69180381491937
76.03723184270508
78.94454868470403
81.12914074162205
81.08366846849972
79.82443649040464
80.9437544641168
78.14111449555134
78.97597597161213
77.09356054674116
77.54944905263008
75.1836411247228
74.22892007837122
74.42845180892121
75.63727990134348
77.8159152707887
78.85590659032789
75.10831722492739
72.32792733222249
69.97362771185762
71.70681317156362
73.83899569492337
76.12985575079674
76.07162615679495
74.79837720966759
74.44416411242396
74.81122228028761
75.1866634165492
74.64047485495172
74.06686141651579
73.28079598008769
73.36609544704424
74.17819661305361
74.49224047748837
75.24656577929963
75.30800091536618
75.84357206038798
76.52969530419414
77.69093486994515
78.08198543591477
77.36865428553249
78.35996319343141
79.271480172429
81.2785385722349
80.47434530458877
82.11853317150413
79.95437491480052
76.03968655005897
72.58826116215434
74.52586425528553
74.00470724197103
79.61661000199138
77.63507900774871
82.40625723822751
83.22943683639753
84.11702942745077
85.59347223129295
83.83962848134459
81.90243527498836
80.17904803568135
80.97501893580647
82.65954425743725
84.44974424665563
77.00734656885317
76.84869944894395
74.25855789432806
72.1591620450077
75.2485974157274
76.48540160895203
77.46116550136611
82.14355584912363
75.98599811545553
79.4607901877362
76.84120894498741
73.5068727531357
72.42978830487885
67.10567413412902
65.93283943351994
67.23125392320978
70.32031247072007
72.84345967372123
74.50714163636113
74.73838243826233
73.6174778149783
72.81270470325762
73.15624371610082
77.56607056647017
76.63481828140421
76.77287741307802
75.49926774091186
69.39121978171336
65.80493705489464
64.12262457647223
70.64642617909665
72.9249062229667
76.30955143091654
79.35746460867085
75.02335961612292
71.02233280120831
67.8821525766981
63.10916942408875
63.70827822759128
66.7027605436361
70.46754395866384
73.3696849310173
77.86666236983194
74.48450664356776
72.26946094253846
73.03944420510757
71.31576492629407
71.70602221392963
71.33425927873589
74.00576029063518
74.84517417775365
77.4564408902714
72.70968106083339
73.33735875051465
76.34090173838541
71.73820803737856
73.81056289075667
74.98071306777715
72.40097145448868
71.40560630624336
71.21308777994395
72.11581016976137
72.71862083123705
72.88893250328141
72.26328403468173
71.70453516623867
71.55591362030037
72.39958555656344
75.39374444135527
77.60007654800329
77.07909752704592
72.40085162971924
70.53173586378279
67.07022297788008
67.04792664451347
71.52813163977662
76.61243526498922
77.70535350012946
76.97442214583936
75.49239598512963
73.91440993855085
74.9542515740968
73.63711812767878
77.06581213637884
75.00519704492211
75.01417275921702
81.16803604768955
76.1250215698364
76.1000199717738
78.3793172765845
73.03435882541794
68.55341499569457
68.36925513660587
68.08324081776661
72.23442654849109
76.65765018413038
77.50115377287838
78.18450382006534
78.23133835324107
76.44502056108604
74.30162309629333
70.67717511887585
69.1966698665276
75.19440213818285
75.54745137077995
81.44819100768478
80.35671576349745
76.12315831567591
73.16607084056784
68.35437825803261
69.30552791627017
74.41177022522467
77.73752260148915
82.35185468610219
82.57456217218814
81.2526115807417
78.34081666187922
73.00160281136229
68.03392282259585
66.99235360549051
68.55073798844984
71.93956036803951
74.02163289935186
75.15956357843261
74.97773890287603
75.43717795377772
77.79801303119626
84.05753729049985
85.21386731430172
85.91773036794152
80.11235160426213
69.19004980809251
61.76443133746009
57.275178314616355
61.741533994801124
72.3663989225488
72.53538728894686
73.99643836420756
74.35058388591153
69.90506543715406
68.93177129049081
70.90370858012467
74.1949374125402
78.44577187592459
76.68566715795676
79.87449948781207
75.73847178883071
73.5396760686054
71.75043990258024
71.46205317291512
72.29671348484824
72.8259083618047
72.64511521254275
71.87978677130913
72.18391835694919
75.79643469033118
74.71579027542447
77.71512119602971
79.55287926321849
80.2734468921538
79.73764786123598
81.56253069273819
75.17543707527072
81.50975269081508
81.46338232333916
82.95104624495974
83.95581918823738
82.12767324882688
80.88447618608129
78.72082857037783
77.06919872101369
78.94078241998115
80.28096446368514
81.69288256613977
81.17533635323817
77.30099091657347
75.85328958421461
71.97084092935533
75.35568851383758
73.24447576307573
74.45516364747273
73.50805068960761
69.67303573109014
60.952370129822924
58.22260769956781
58.54946656398493
63.08964832380906
68.16498277991484
71.4682402832325
75.23097180098134
75.59304252531606
73.92319468232684
63.24882547040449
62.07581164783735
60.1979670388565
61.49593130814827
64.89992066853182
71.52831051302765
77.95238242867015
78.06578109550006
76.00426184612178
68.70968732448253
68.16938541793664
65.51623992134458
67.95144712214994
71.27348969886523
69.27095489838823
69.00627646929347
68.27295277789804
68.96264715172225
70.81894803073011
77.19218115740163
74.47854842850353
74.08272777093268
72.88037776383871
69.05470614547343
67.94758523262482
71.07154813855335
71.89048795204143
73.09817833411938
67.2068726818118
67.58301899791259
65.01485822674697
63.091106986147246
66.19959012301798
68.23451360884624
68.4827617984921
68.40563520096202
67.3240912229981
67.9488017394851
69.39435516650684
69.1298763488458
68.69585629725377
68.49810973814176
69.9294263405265
71.95448068119705
73.00979828300645
72.30490173648782
70.48143198456326
69.48970366235841
70.17538579378551
72.17867539048481
72.531121323651
71.66972465580274
69.77788736662379
69.5889442724607
70.90761231792644
74.70309366530181
75.9846842253873
77.51748102902329
73.51588545851737
74.0479497623772
70.90477600831812
71.83776742585343
77.77197631537031
78.82564961455851
78.07046704484377
79.96816950756364
75.14656413543214
71.34280261060889
68.3257093001319
68.13962483341375
70.0624907212102
76.78634158559784
76.18732176361455
78.70785027199507
79.95652004408609
77.71402167121462
71.75507320524797
71.65268361691089
74.20269806751722
72.52421036194696
75.85783906091213
77.51184034869978
75.96649581948466
73.88494747048779
71.20964611328387
69.25738759494749
70.72810707933465
73.64102253263883
74.11950876439447
72.37951320655026
69.16254156416777
67.46482624147791
68.30323767725555
70.16369084446026
71.84498384439534
72.96839211847067
73.81496706933176
73.08873761403227
72.72425877348272
73.16570352359915
73.37300079974597
73.4562490184517
73.04279933131917
72.24765336798613
72.0877536111536
75.38636893361185
74.04613830168282
75.36461917723354
77.17055204905097
75.7149549123975
73.50313152363066
70.79866526761373
72.3487086607328
74.76057566400623
81.02515208916003
77.88947901322166
80.30374513012137
78.67966775168223
73.96551220915151
69.38815664300174
66.82773064383574
67.7279225477279
71.85523997288327
74.6570836964873
75.9041412370234
74.94886046038268
73.02848949184428
71.88611616139451
75.40242159415526
73.54701304963547
74.84840236979497
76.68530137962789
75.12670380785576
72.25648512812062
68.034739125455
68.54028878035898
70.90230297756888
76.03154105272962
80.33128298862349
84.11032143644444
80.71843432712018
78.02063155833
80.65645084744509
75.84664341896698
76.94170260769683
78.70517269390609
76.58156032190597
78.90003825925619
76.04582023931277
76.42956165960113
79.6714119520192
79.78751044420135
79.18753309245162
77.74281006613812
75.08371146266836
73.80415319765262
72.95495276563133
72.54910660168525
73.20268277183189
74.63588558452345
78.54872597987752
79.23021694132369
78.53872159440913
77.19742007787623
74.0047961789529
77.72233596025919
76.56692534309225
77.84765515741863
79.33383080510328
77.9357613994189
77.9478884230129
76.55897870201356
75.64526765313606
78.75252767533895
77.93653334828453
79.51714318776015
79.47888692227686
76.26635434295581
78.54824073194675
74.3794968658906
75.33876795834696
81.9698576347351
78.91145782349558
80.3951742258998
79.52567372644498
76.53272939629844
75.88333848716402
74.25617461177613
74.51894674575512
75.2797726525967
75.92906708113125
76.26080417145467
79.01313772605336
76.54216927209076
80.3871470683759
78.8322159546731
78.48543397550998
82.36859570374094
77.42352702813335
76.46004397545698
76.46210546657034
73.91355172379579
73.45609869895026
71.06513506662066
70.48850695501483
74.4225823259848
79.71365753633853
79.88004318287489
74.38681099481414
73.0706679182127
68.81334364731312
66.72923473880647
67.22383882029796
67.63392241486432
68.02179596173711
69.22715779116598
69.36803045023154
70.73568255569802
72.01055771277338
73.68124213690957
72.42437797495079
69.70532728042645
67.33546148421695
65.86961043556872
66.20023017687011
67.07425244003713
68.56688657595836
69.87149875222593
70.88284211284544
71.74217680377552
71.50320246569817
76.52597493604759
74.89556636794435
76.0256205375541
75.81119258772908
73.28349451182368
70.9839981768449
70.31478779150297
71.22301780438244
72.5986507392958
74.09497759533875
75.03518075915082
76.94023337396541
77.30245295837548
76.67210233549343
71.45619341127585
75.24762549347409
74.92447596742183
75.49241267492995
76.17863189528379
73.9476345375362
73.0016520945972
72.53871862844093
72.95347457544409
73.80469888754686
74.27408968153776
74.41758661620135
74.47608638384067
74.72996154752268
77.35210129228282
78.39525110244206
78.38612771056464
77.45618118251865
72.61353510414409
70.7394832328265
70.08194475865591
71.75390554866769
73.71548442258245
75.58382087113407
76.85610078908016
77.37507645979925
77.04816354251705
75.82950087318244
75.56718929646138
75.69334951994522
77.33889684088973
78.04119420400056
78.01095363072224
77.4157641765536
77.02254501239757
77.6142286988404
81.10820039954609
80.98596989986304
81.64536291573827
81.48147030199276
81.1068504159892
79.98879613009197
79.50568906112942
81.01052539215404
80.26384630663725
84.72518884710058
82.49264558121558
80.84937967893238
78.96851574279769
74.89016961159773
70.81255153983632
68.134844996932
67.94426223736463
75.0776098402405
75.58968001789718
78.12706357680901
78.8907697436862
74.41079857593093
71.66696040236666
69.68439834120223
69.18245109577887
75.57985740923353
74.77643173443676
76.37770278916949
76.2378546157757
73.39717141164928
70.69052262359995
68.0331873001694
65.96871898570109
65.10014552567743
65.00564491395957
63.88207979769961
62.79108080421037
61.21024309404991
63.868006414669296
66.85932611999135
69.43474205016695
70.25449840548497
69.51366344149511
68.94027024963786
73.9443663873962
74.96793566530235
77.71084404409488
77.66418406083179
73.09982615126052
69.03992385727537
64.33362834446193
63.99401040464373
65.45151470558457
69.00464234429654
72.84664982460423
76.3145316909535
76.76958357732893
75.15047153999852
68.29165049217058
67.58321817333501
67.35492354123575
68.10490898758418
69.29031142493318
69.79537705353565
68.89472073466004
68.79663158034357
69.8429133174534
72.44440483669992
73.78095638695713
74.51160246556228
73.2284387070722
71.87619138831249
71.73929471469631
72.42065487451342
73.11187275011551
72.70778850085819
71.89507462580778
70.65163001078753
69.81541630259525
69.90340583822905
70.22431880788322
69.81253183308058
68.60554299576239
68.30592817878275
69.30373198408911
71.79333259868973
73.20085244057611
73.4955135247162
73.36220284942614
74.24699776727674
76.05642431158812
77.64598110126995
74.38855364911637
69.4600193417169
58.964408312457614
61.10883971140054
62.69055644584614
64.89031678112049
69.51617418403717
75.9576834656083
73.88586510842086
68.08159979586307
69.7110171092171
65.4830560318077
65.01877136188185
66.47266101832614
70.22030188018803
74.37660595231813
76.83404096998707
76.35080603539905
74.4729582053563
71.31905211553703
71.79777934782636
76.99428630779582
81.74958413742371
84.80885517345658
83.17718775852293
79.82132118578045
76.23767676515344
74.92139234220473
76.34445526480289
77.94581561561178
77.0268817787658
77.28627163605623
74.96782082024993
71.56927784625334
67.74049130932318
68.36310130584971
71.26014143127303
75.30978389145696
72.3164157184063
78.94288479444647
75.41781248047633
74.15925338450026
74.96610410347384
71.4074212468145
71.18343765084559
70.8713398905252
72.35104414118682
75.16827423307217
76.4441574654404
77.01895465874424
70.82204185113056
72.78005409867974
67.25971397623006
64.50740054224373
66.77524652413771
63.87707332532398
63.56047681944946
63.350258293715115
63.327327852751154
64.9241923266432
66.02642453727101
66.27009024077748
66.52498593628276
66.75610749599349
70.09953720839323
70.13390093754869
70.68973795532953
71.38654722206809
72.171099554038
73.58124513080858
72.26022250923106
67.24231754570587
64.2544588684952
64.20228045502749
65.4334091231099
67.011024338697
67.22469037967664
66.51081285363145
66.87035015250851
67.3974707135305
67.57051762844151
68.65410472791642
69.64865481170831
70.35709812722135
69.95773455968421
68.85637251986299
68.72172507464428
70.09942486907666
72.03637862563534
73.38434474393543
74.00488512212908
73.91563408437005
72.65492081064048
70.91254270206531
69.55057591584567
68.54764138527781
68.64848382140923
69.34357108444834
70.63222863390105
71.33061133967367
70.85329300341252
69.42259070397971
68.46192836344898
69.11359558724646
71.22453123450214
72.6650210683024
72.6634479189852
72.16289206253326
71.22912878195751
70.7442053613978
70.78150808010005
72.95055848488025
75.6350693776626
79.76858129485578
83.65524868577475
81.78629512730761
80.14842893426678
77.06442958412745
71.24707084304544
72.510957995976
65.84820009014196
66.22858127357401
69.62782136128862
68.8505775985318
72.07623011654684
73.62207412137283
75.32484857850434
79.19061642316068
77.09016750964088
76.66756986699743
78.29324861892366
79.55792941211855
77.12632903753834
71.63481425151724
71.14831008298115
65.70497642546992
60.35607571902621
55.90905526902057
57.8250162626617
60.23469457785833
63.75594021872813
64.94144774586707
64.51842693197077
62.96817806466231
60.714159079765295
61.34439603324124
63.567178193178314
66.01357430727701
66.1563255387592
65.1420668950888
64.29109742221345
64.45651023861362
65.79894682192787
67.1154237257895
66.9946538654401
66.4251777769568
65.55220197588406
64.80795422011961
64.17783461500555
63.97503485354242
64.14223101847612
64.21379491454147
63.77173803540094
64.29183005780519
64.93922251462739
65.72916754730484
67.02861825450051
67.23384388542274
67.33574902629447
66.73785160616276
66.09485673177933
66.80418627946204
68.44902932106496
71.88919053370637
72.95223269710283
77.29607056018754
75.04110280472247
72.21301910659795
70.4283608580311
64.48254750162619
62.29128932011482
60.91861753744654
61.5707190932069
64.76761370396841
68.00299849409504
70.05150576031063
70.83841255930048
70.28504448074523
69.26413223577376
68.52696156485858
67.53363833621782
66.85920042586632
66.73881273929726
66.47405211372178
66.45129838998352
66.63975201595335
67.36220393958388
67.74636687758178
67.66410926506434
66.91840589292815
66.56493524378227
67.01061559464891
67.20854375715457
66.27670616526513
65.04083391437862
64.40880124437373
64.4672358109442
65.7984441073808
66.78970552675479
67.12527908974243
66.86352608204595
66.17939636936725
65.4525846573488
65.30536231336906
65.54969422006647
66.08899897227062
66.67999277958322
67.33203963281858
68.64466122502347
69.83608191633948
70.97324262689037
71.27862552157302
70.75630919891749
69.9454817086644
69.865755842966
70.5964814045945
71.21827175459417
71.4606534909732
71.2322242879022
71.24120441830415
71.79322388170675
72.12268811394884
72.16274656622073
72.49183745239627
72.9292246347232
73.40034323915157
72.64332928760149
70.0310250748453
67.46370166207706
65.22055172470738
64.53684853115351
66.64366478372861
68.52984920540908
74.51335598998554
73.84884864326054
75.39387252721974
75.94694195506652
73.55668312688829
71.92986590350782
69.5013819731584
67.52696668565474
67.71772789534009
70.29688426428498
71.71629697968764
75.66407470650344
78.06911004614328
81.45402645784235
85.06749799689517
86.27081814697263
88.27363156376774
89.30188880545809
88.94368803152601
85.22566698932025
84.20140245305626
77.44498878819961
76.02479312835506
79.17319001353398
78.28530350593539
77.53882633171303
75.76751769179589
74.39635665345904
74.45596771216978
79.60193162816826
79.07748744414029
81.78534614603957
84.36699158485332
82.73035621139728
82.87400104970467
81.66158175294251
81.27235805903057
82.88727428690987
81.81077489656865
79.39177809739041
81.59681844253348
76.19809747743356
79.58356554254675
77.93678136957892
77.8283629159218
78.55354613697935
73.21602075503381
69.62114999233336
67.65625769798837
68.68753572689397
71.12832625456907
73.8953752664818
74.5373039547302
79.67833052986245
74.84683584182751
74.22183589688913
74.19002502543893
69.35995334085595
67.66700446336804
65.78197053961783
70.75047854684672
71.85320616000865
74.40359876157378
77.99706469409976
76.9458493518209
80.30899054117054
77.30467847293724
80.22900609559329
77.2156732159736
77.89294702180084
82.09173693136663
77.41422826971512
72.7271295899242
75.95406724635787
73.09616792630405
77.58661762173506
76.12241937460425
76.7664402056067
77.32303076567267
73.94503939301987
71.46186231390656
69.30570010903548
75.41048142193995
76.51867922231055
80.59133310365307
83.0340808275552
78.70688854373955
71.88011636870266
69.2079189198848
68.95324297052126
76.17875755578645
76.82688489281516
81.61471182357806
80.09308571722299
82.32209783245258
79.82507093834764
77.15126461960358
79.1500804679292
75.65632066207189
72.3933150046094
75.30668587864548
75.33690821146281
75.04985854332233
74.51616382296851
71.59277239227944
69.12454779620401
68.71930575035091
70.72223316548911
75.55158566951545
81.82147543952061
81.19077467264253
82.35074224657275
80.29260177489624
77.4114724916372
75.7804089202356
74.57428015190764
76.9553679179367
78.30160161973987
78.98699207572821
80.33920597541123
80.05056559667757
79.68864687381895
73.8931616669716
76.27449063443652
74.48585853798465
74.72951535538027
72.9173423156918
76.23744531367622
75.89832107389601
75.33706392312466
73.21492014128195
72.04726467558241
71.5815822590902
72.18923910750034
77.40534666158462
77.9457459638802
81.3664572758235
83.59926861574601
79.75658870206615
70.85214762574213
67.57503213875196
67.1009235918196
71.88876822534307
79.63877027960807
79.81736244797442
80.1637851756178
83.85581557852925
79.04619950856367
77.99611478260248
76.4511581572063
74.31440834003696
74.58377230996285
74.93626465762063
76.4162559599115
77.17437240375763
78.36465940927765
80.21540223401259
80.68658919353149
81.25414208567334
78.4197153065283
78.84837817206864
77.77980651760846
74.90402900471082
74.20641184469679
73.77328688263486
74.66435012464635
77.09126418108434
77.69933023197257
77.9658674496402
77.18167786881922
76.50690660869682
76.55401773182075
78.53016115706461
79.62975034737745
81.31823737795625
82.27010750609436
83.86466516767709
82.49314165139263
85.16361699402492
82.24044632836886
76.28980001936687
74.73281931224122
78.71760346837256
81.75524840733684
82.38074906572379
84.36310722136741
80.86410664653056
78.49107017607622
74.16754588418442
72.68790957345362
69.5410950748381
73.45105942409243
74.36427202583548
74.00497018265484
73.8303156588754
73.53297386715514
73.40641922333822
73.51291549936673
73.11432023885334
72.60603168961521
71.75448569483272
76.28739095346367
74.10228541014186
77.59583657630495
81.76651060200425
81.49579644570268
77.00037495376371
75.97402946619634
71.74827471310248
73.17272728641119
79.64485784980144
80.58143018463474
80.16867178490678
82.4070515105756
77.93052845872688
73.38121156950521
70.89793311042567
69.52799176033422
71.53450876930306
74.66325872533433
77.9942325479951
80.39626705106299
82.38120416912554
79.93902137212831
83.09141756275363
82.14022295241281
79.47796885114523
72.77451336931304
73.12473561097589
72.4058266477288
73.88070706485308
75.25037985642466
74.7511854069145
74.403769317807
74.68424008333396
76.28995683248692
77.42427312582842
76.78815108593491
76.38010549238285
76.41380005366167
77.04359854679018
82.09419588369681
80.77065205579916
81.74757726608051
81.49896915186896
78.67197441130836
75.77055415702768
74.39885626558456
75.90182952933874
81.19319807037529
81.78108336893311
85.75063826390641
84.19890751664991
85.23575395386567
82.17282138220185
79.69893417262274
78.66134805173299
75.44410913684783
72.7816005901671
71.18897124100367
72.80023487519885
79.06500715703689
80.63286888774343
82.292823070944
80.6228096378303
75.35482729776277
70.42310020293448
69.23576762975779
74.76848147059161
80.29142476678228
87.27935565505312
84.92337533564226
81.51426799504692
81.34773959707303
77.83766317745355
72.97137422557873
75.72482906398535
76.8683191650175
79.42046692370634
82.17765566021947
83.73433513201493
84.8913883538456
81.3578311687811
82.11864127840741
76.8360838121692
77.01400685073887
75.6271224783128
77.48366609340437
80.30456384507625
82.42615850455917
82.05898129643715
80.15468484532707
77.9771601356163
76.97453724357142
80.54395662960103
78.9363391490816
79.6235086440596
81.88002994749792
84.39136366323915
82.53129636355455
76.04436767379957
75.20952484556736
75.11482933584406
69.95005570516585
73.95907986706135
77.12359159419653
79.40457397074246
77.97264306122472
74.9987899947848
75.38152422474468
74.16911358618913
75.5853080041
76.05227683895376
78.30462308000175
75.75779046167699
77.75268044626131
79.77833445206397
79.48026671327654
77.7390927342802
75.10444444872276
71.95470230940037
71.24876255522344
72.58131229731013
74.09509880878575
74.83250272292773
74.14957569304323
73.84760815704652
74.41899415866969
80.00014664018879
81.7490085995964
86.0304070066909
92.0396607680376
90.91376373960821
87.84844712549263
85.58434647929901
82.41688683843523
81.76184783158861
84.65986322807659
88.42360384180986
90.83021705430941
93.64073685112321
95.34571471494792
96.16182136175335
96.10682510677373
95.16031001505486
94.69045118683994
94.76138018904562
94.77767888495339
94.25774095961624
92.95163490592759
91.62004414501247
90.59657754739398
89.11105809865285
87.13911486631275
83.87564548146327
81.78932262474461
81.93832638227175
82.7021149438841
82.4519020050778
81.4705121720742
81.5808488731278
83.41036820888449
85.57071546797089
86.010456106042
84.44889878932474
82.47616079668948
84.2555871644244
81.87300755177482
82.07930374171846
82.22610224211046
79.73338029855388
87.25680590073895
86.00832667751361
88.77171522802458
87.6855975406094
77.87396914944293
77.05284532634538
70.10136982092432
62.8537523191275
67.85134250087215
64.50250187749646
68.15140959205692
71.61640769318622
67.08998860042647
65.97420743897655
63.12000271705488
61.08306377315267
59.66946506044692
59.182338138867244
66.54453299235345
65.34172780467743
67.3874147581409
68.22710606744546
66.1857177558413
63.08498259954797
64.02230128248127
66.96237905036105
66.55922669602629
65.54343840098403
64.08318131381466
63.15621431540286
63.8546790057191
64.56375603198572
63.99009257666893
63.087189689058434
61.57728652576323
60.46929366318422
60.419480999412265
62.738509601355425
71.53215762027548
72.03672840835578
73.99631823546737
73.20459708718259
68.99197094921556
65.23414057941274
61.83190779459482
58.62736334442538
64.54890077528037
73.9034222288471
72.10909575084199
72.623784111851
66.25301827442232
64.81375209431286
62.12937478703844
67.57713876624993
63.64899117515762
67.76589343056477
59.2025241284883
57.386294408529295
54.121361476108675
54.40969013132193
57.63125577162833
66.09923064300018
66.38444767474301
72.3534501672057
73.71789326460853
71.88616059316465
68.6179973020288
67.96263878157002
72.30849583116529
69.27559952471456
71.12127862946139
72.78065644142026
74.69184643247797
67.6616870858082
70.75961115720227
69.28971866982286
66.57870947963457
66.96692264450142
61.80031120568817
66.10037688072909
62.53067892533543
64.09168620629235
65.60506935861427
60.38356315322314
59.50093298980391
58.85781038218909
60.64608964001411
64.23448658638907
65.77097893269095
66.51019702189623
66.71428470718952
67.02446081191147
66.87411848579033
65.65923422353765
64.24971487696666
67.26766007065746
69.06445329682094
69.69249596934708
63.973539728324546
65.51813407239285
64.08136795041767
67.70363644923592
68.55202826713487
70.0587260312004
65.17716771119913
66.63885717224954
65.49940277232261
64.60034107547392
65.24803103745617
64.98886655002997
64.12773736614105
63.192410487537224
69.22088472678747
73.0169034268817
73.76002695772345
81.08213776007898
76.42303440189532
73.56192154726615
69.71795059261068
65.16656774956436
63.45891883401956
64.9268047649599
67.87336032805817
70.10784220098671
72.30074773879737
73.58577414462145
72.68918028368329
69.4951759706788
64.65746059293859
62.93051080919098
67.11617844854416
74.01289107537099
73.96014091891855
70.93720377468723
72.27605019651406
64.9722432449593
58.50994213072753
53.36428283265724
54.255942216357845
58.14295125428449
60.2409857839727
62.64514460086998
64.26347722610902
67.24491256884114
68.58743503969521
70.13967453516335
65.17911709819083
69.9287574393289
68.28964707266843
71.88386110173126
66.75128395993217
69.67768495765392
62.53373166834113
62.49969969598023
61.641440703310344
63.67911567991586
68.06034051568614
70.49789650368432
70.28043026108827
69.66657105735771
70.31073676639764
71.23784657939368
70.89037883332492
68.91456961520758
66.42363110122733
65.26452998392907
65.21178697049467
65.54246001482201
65.41431282040783
64.92634568972757
64.45617500182954
63.897461073127324
63.17031122248474
62.45683591430952
62.17678864988847
61.84537937377684
61.81931225094289
61.72062162154139
61.51651135261778
61.03150198694821
60.67167098512055
60.89879006761816
61.28205240690504
61.723357939803385
61.91257038942779
65.19906893812976
71.03417826238369
70.0505010022875
76.49879138583573
73.90086202676063
71.18745492191269
69.26386593826331
62.82116123205901
66.94454137707955
64.09383489234655
66.44629107185386
69.10615854630136
63.973569908314055
67.85189827126214
63.10087271527276
69.35191466337837
74.03021295091017
70.78655946601762
74.35354921566409
69.53235918131736
64.90957868076318
60.493107486807624
52.09597953475574
50.693356234491866
60.749393826832126
61.8676368622099
65.80266121986618
66.97702212561137
63.327717658264305
60.463754726282346
65.12330352261333
62.51448520777941
64.63129074614365
67.04258863255464
61.90811310836687
61.62827371900969
61.423206962050315
63.22265371065312
64.3445876491823
62.638741022485284
59.96763726822976
57.76263987890974
64.35078804197295
69.72510722496672
70.05191847383031
71.29152825115337
69.81822252573483
60.900951030220696
56.16419876289569
54.30288943026998
54.81317544117001
63.53311004523615
61.501381067737626
68.82311398517646
68.7441280596349
66.31858961649608
73.46196518072746
66.95243300649298
64.8034261806474
62.66196542176775
55.76677307563104
54.96153440274819
55.02325183936697
62.727290040796056
67.22513601431281
69.92184382185181
63.89469990277371
63.33072737887125
59.97141614833727
65.88113019286385
64.2400842795787
66.48595104784467
67.2490972947363
67.2243692069755
65.8700874661925
64.79573485675463
62.27095062510273
72.78735791975866
71.74450183230785
66.46451450051813
68.2138441125889
69.11556195381935
64.84852558875346
63.44391919508548
65.03867866948353
60.86269187625345
61.784964773228914
61.82020373076977
66.47135657977762
72.10490961853442
71.37276714591289
65.65735248002844
67.1030642328509
60.4572443603923
55.84816251625898
53.55505913966399
55.396675216704146
58.48531472542225
60.56743631761077
61.25721384762517
60.89129609525809
60.52754526529293
60.05200433463286
60.052289077254706
60.10099037595601
59.724130917963
59.8719238764496
60.47859647338084
61.02505222114211
61.5375890968515
61.82059461660636
61.52314685401466
67.41071417126476
66.12645330850167
67.34825888067135
67.74802293454619
62.9247157799511
66.10260145892747
65.32623794382461
68.02558500645307
64.08451408722512
67.46188539208825
65.85521167123116
63.463992034201446
62.041592747713494
61.740661887417126
62.596175455696645
62.7450484984218
61.66280945692711
60.506642233145676
64.67790650287502
72.1556999344331
71.46984418468438
65.47759106142527
71.77544073354022
65.162808785866
69.83886135119141
69.3515008688341
65.43874926801774
66.161707442761
59.89693448905586
57.86134949536916
63.64335979562399
62.22201344054899
67.9238937970545
70.78100388565227
68.5269668427619
65.44569962942502
59.1557800415629
54.0948230737522
52.426838236193284
54.22035206640817
57.200464009757994
60.7294853674402
63.557562307129295
62.95612871656527
60.14866951215556
57.779030347329176
57.45855333475672
59.73549915056916
63.165135663298564
65.8089760567687
65.89145949274808
65.12012743406132
64.07736664182295
63.3036059052875
63.248692001906015
63.299645930654165
63.394493139533715
62.83750756685884
61.848262171163775
60.65892985520471
59.89645714850982
60.822967670212165
62.29512220250748
62.55348903430087
61.974406994295464
61.284787770574724
60.80041910793295
61.21504358026117
61.887293809076155
61.96514999572338
61.936130222356596
62.50275088358779
62.728770925041665
63.303835376498114
63.59884699816804
63.88658082915344
64.11861854959768
63.6520675145989
62.51135143968608
60.929856876203495
60.7296884430211
61.70944195404452
63.459607431571555
64.6319921243522
64.24101177049194
62.59152709607557
60.996039908157115
60.10035146648645
61.18119933362158
62.37284297927134
62.95174434292606
63.23139445593905
63.57455112919155
63.84860589025784
62.86837108460907
61.520571370564944
60.83688207842071
61.19433367555912
62.89689383052091
63.58921361995635
62.99278198293229
62.26199933895842
61.50277968337244
62.14850077804456
64.30391322844143
66.33680565126171
67.12912550600689
66.3804954542563
65.01604123594362
64.23989144050964
63.28769625391998
62.34657417327263
61.06788236559083
60.1625592393242
60.90061858531419
62.072265810750615
63.280873003568466
63.525838950987065
63.77110520992781
64.30975006389876
64.1776797089273
63.61998270319668
62.74184305859343
62.52250053651612
63.03496639265159
63.6201072203511
63.50140764019591
62.67593583919749
62.09967761483759
61.644696300157705
61.577363995589835
67.88046457130712
65.90040863211858
67.32687745819233
68.02384976611954
63.25696007565323
61.423898054096234
59.44136232836216
59.870675850328375
61.658227544368174
64.57837469198451
65.67541106178405
65.04483636436298
63.12520881615553
60.59860488106797
59.44877373123683
59.87148356498776
60.670624811206096
61.28692500256751
61.535959421367394
61.19377496418229
60.35388096776683
59.33499220081705
58.72924496306591
59.17544114065198
60.31449986429542
61.71323234975104
62.67932475746979
62.66690488382225
62.32113012264602
61.87213679481315
61.89902917821785
62.40334218450484
62.71478240765312
62.452772982674844
62.23424921714168
62.247221371048894
62.83903995058605
64.02443946435291
64.7047848433109
64.71917871425964
64.11712174311502
68.73386888980656
66.5009549811927
67.81024932474395
69.05599849822669
66.29601856919537
64.32670284880346
61.76133340843598
61.20034696995521
63.107075507729526
64.97059771510625
66.61204495976502
66.94314823926109
66.35006619850712
65.11048527909587
64.05303307589756
63.3372526070398
63.21782649768933
62.323563098224824
62.216872250282385
62.323687051344585
62.388588663170616
62.87677767189162
64.42806406063707
65.06549255799312
65.28341984117539
64.7823512141455
63.83096916150131
64.20203288506207
64.96373529811802
64.58559158708063
62.817814062634156
61.049611753603116
58.474684455619375
59.061176715862054
61.215216309349735
61.864589651280156
61.98029514423564
61.69935239817333
60.967830037367285
61.278518967255216
61.59354747859822
61.64352446829677
61.40991953317621
61.307127834591206
61.67992128115567
62.10142752240887
62.89631011289608
62.81883779885199
62.25987776466196
61.88149865188835
61.95661944420702
62.57836206414327
63.66081136586229
64.15742622427302
64.57816696266
64.33079776612647
63.18131982401739
62.349840435844456
62.959335540988945
63.984235033095096
65.84857009509548
66.5800598953459
65.22162124278411
63.245337291481285
61.764696418017614
62.825515676154865
64.05668832384691
63.8433328709511
62.783022567693735
60.98497460675771
60.8634082923332
61.845526269911325
62.85871691816279
62.74543063310566
61.91206469049409
61.214779429134765
60.71079237386658
60.97942618019018
61.665899800128436
62.50815759174633
62.68192335742855
62.33344577274487
61.747744857936354
61.72592487357032
62.69352910225972
63.928294029462236
64.22579724063262
63.8916606572371
63.30189775863659
62.87642124050058
62.923495091462094
63.52026164911711
64.28170968801413
64.90898872194487
65.3129006059703
64.69880973928537
64.9727442248199
65.98210257444715
66.52883026804984
66.00208302034554
64.15311679484664
62.48872697950029
62.4855584432751
64.05357165536512
64.9051471276681
64.92713975046073
64.42824230981672
63.30889800733136
62.535593025260894
62.52371572548717
62.53627704206742
62.75080361989923
62.67313858782662
61.9805736532682
61.8910022359148
62.847912218118765
63.61787373158562
64.15972410011118
64.5051988837465
64.06260212468952
64.78378960209608
65.3006649747854
65.47745142838309
65.47858041872163
64.13123560330467
61.99002094273381
60.62048052495947
59.87423766101496
59.661097135866726
59.90566456357052
60.37958039247407
60.38970606754093
62.037008437629105
65.86773373023797
69.18499621597621
74.27583998508014
79.03478286004889
84.23275838974766
87.7987324292094
90.9364435221332
92.09862653893384
91.28002609017814
88.82257543944161
85.16410751353075
79.93549461374397
75.98554170791239
74.3447713133097
76.24607211567493
80.8398331467484
82.510694563245
79.53560272807388
74.38099457302623
67.15859573905439
65.66379737488396
69.71461969384384
72.62791463127807
76.60336183730867
72.4208490189474
73.19346831904251
73.23234278344908
70.73315137330025
63.00540116000444
62.6928421299038
58.87299956571906
59.36326493961629
67.65859253996415
69.28746409466581
72.75872054168775
80.99801263919599
75.87225235280775
73.01719805102339
68.49431138168707
60.33622488915381
52.55658720673512
50.78213440989946
51.24545559089085
51.456216696713994
53.35124237414188
52.47873525163476
60.58830139490342
58.64931718408426
60.24546600797424
59.82688219913541
52.263132810878226
51.00860668548751
49.255520506185725
51.700517013118585
53.149447828241904
55.25676678886651
54.89900977264127
54.39516365212777
53.79525580542336
54.06656268095325
55.03972384739387
55.97252786291281
55.946646891166395
56.59718950369155
57.28464527110153
58.46006716345944
59.06767354052629
57.93070704908804
57.02579001869183
56.69652082612481
58.43412618447096
59.790866702346534
60.367897739299856
63.533596749055704
64.1095660217888
63.47311456139341
62.20966612084545
55.309480590167034
54.12197159300911
53.59471470795277
60.46473796902825
63.60631336180358
65.84966875958466
59.26544090271244
60.1713740734374
65.25310758724024
62.15422039131321
62.846982274359696
63.69253951491026
58.69430660386741
57.23662635247472
55.70224865430509
55.560633909858865
56.160264646884535
56.702475174094765
56.630341803211316
56.210053970522175
57.282599306182746
60.220577244885554
64.22923729936386
71.69600028706154
75.01624851092873
77.73426759152032
79.12463768408738
77.53578825296023
75.56151828372664
72.26789704542935
67.34550788292759
61.72597800709866
59.623349094853744
