66.60310756946997
66.72622532983297
67.14372066282073
67.72789846785577
72.59404136533075
76.38165965040211
78.12738814197809
78.68269406985979
77.29973275406604
74.89954915833208
72.7222275059112
70.36368246668319
69.71783924227323
68.29293902157147
67.7575987506486
68.3664940682019
70.83932759299799
73.88873389521069
76.39665803586831
77.64162192642561
79.29839035327284
81.05645866001814
83.47288982803174
85.1334381209755
85.8960165318572
83.23227761225915
81.33097629475643
78.84562515837874
77.11767841873676
76.66565024307293
75.92213610757062
74.55066291782906
71.07870259910689
68.28357918778508
67.8542024714859
68.62449300143648
69.56897155535945
69.57206318009011
69.16407483103505
67.73284518749264
65.29933177555175
62.78028687823275
58.2629571266782
57.70189096535946
57.21642499662195
56.52299162314455
55.88806894215893
55.46402494420784
55.531694913852746
55.581065886469524
56.034295233062814
56.634988604840515
56.726193745368846
56.566426438764445
56.591368286437465
56.62600069439377
56.54227877286035
57.3428178388055
57.385083120210815
56.91931559724151
56.930114226980926
57.37237324996756
57.339585234666075
59.4239224732695
61.89546252297747
63.045355962229976
63.11355442532854
61.92205882716694
60.810294197228004
60.20694376470179
59.621578877170045
59.16810101667519
59.97020805772156
60.26194060502833
60.849883088668825
59.82606837168068
58.34452736334933
58.2497057682134
58.92711590055898
60.85684476447701
61.497980104646885
60.34565535505578
59.38454362683787
58.864642971662924
58.225025962484686
58.13165528087872
56.72743212627806
56.24808707669989
56.65176901860095
56.708341723036256
56.45751692610611
57.27177050609286
57.10855815523852
57.935251879982
57.971067233381916
58.04690753771274
58.834461783765114
59.310386635111804
59.66242279487539
60.09480866414213
58.42413128873011
57.506624514425475
58.00399970723009
56.820281977484555
56.59162455797584
57.22098415045025
57.07970907805892
56.69024962353933
57.46615689689358
57.59530769859446
58.18409964346693
57.88367760724804
57.81757829302842
57.64861269043853
57.85448795068417
58.610026250548195
57.71985350998781
58.3371659090476
58.35512950867309
58.426090502255285
57.73493937147692
59.10029985650946
59.190122028103865
58.611911788119606
59.48194283401432
59.981878631623815
59.95203438402052
60.10616791950168
60.199706776615244
62.35475325660687
63.82458095353701
62.471025980746056
61.61805371345361
59.82280321511039
60.0474727828601
59.76827622013827
59.03638628158934
58.605468212052216
58.573916968580484
57.1631372163615
57.30047369483188
58.54981209557085
60.05455462521224
59.976995651800614
60.24984634258697
58.89794950532316
57.979006867828396
57.43501556464506
56.76522181051824
55.366897021553655
55.52813715039603
55.88410476104388
56.42116013767094
57.22547186060203
56.99614088605311
57.17147878180507
56.73726453539498
56.71670585320651
56.70654607418197
56.02034422590014
56.72225926201753
57.44574592794813
57.68029938593834
57.92442621895665
58.702504961637764
58.96109936500435
59.56981453316353
60.42434070030102
59.94220971100936
59.510119653735224
58.43878808105985
59.05442458786529
59.23986400109599
59.18559993625558
59.246813439596316
59.29938544798478
59.246245264499784
59.31745364828527
58.61975815986562
58.73527238437608
59.823576378905834
62.15913000354791
63.979209145074705
64.48484080389194
64.02814825575271
63.63481872010074
64.36082674249316
64.94731946720255
64.79687603383925
63.30155570336073
61.43751750032855
59.93290877382161
59.07075785532131
58.52508760244298
57.79959445063433
57.148532142732556
56.57508523300543
56.462866123837124
56.01847226625974
54.97893204688075
55.7379282992938
56.38373778073986
59.355976827951814
60.19159118675638
59.50399058833778
57.642333545941895
55.1295012707757
54.846064035949986
55.650360647247645
57.416993956778406
58.433331131070354
59.27587900507966
59.67948821510983
60.239883454834505
59.82853195476084
59.965709681734566
60.47176808873637
60.75691327639961
61.73501474904091
63.65461617612335
63.50137671219227
62.47616948888134
60.75331767578815
59.120188279044555
59.193418168631304
59.4310209712022
58.569137567616615
57.52270062747974
57.690212697616666
58.37929095281294
58.462296461929434
58.63772259167548
58.67922205518824
58.31903739285401
58.68530462726501
59.434046647735954
59.3926776810177
59.082342768172865
58.83312277647514
58.81504088761454
59.43872724821754
59.62636674263941
58.96207247610167
56.07458467400725
56.56467746883823
57.90148062922262
58.8708213918718
58.623956188110036
57.1553871079447
55.950594276706774
56.087270338768256
57.156390800098485
57.31087206024732
57.83920896792895
58.04497861030711
57.356401794956504
56.54632729507235
56.15428834287214
56.591951154584486
56.739041079764256
57.15111137918275
57.67529259873265
58.92896092887138
60.43001552618007
62.585102601168956
63.181362769896474
60.679759035573035
58.976247527131925
57.15130790314074
57.51346635245928
57.95895956126126
57.80460258972465
56.83976629811692
56.96133583560913
56.149773951512806
55.96963272078792
56.33774503674682
56.81941947417274
56.344944988107166
56.0717652136352
55.75663432463828
55.84843229367106
56.82759982849024
58.137416869966835
57.727360637125706
57.50113196573329
57.63020173112974
57.93634214023054
59.17579836162872
60.519573804060066
60.88561953527433
61.24884783328236
61.129252039733856
62.02347077763559
60.77420705234242
59.20836726762112
57.535380632228474
56.61609287615643
57.34253738091788
57.824563852184205
59.10090336004225
59.39725516886754
61.28701249910716
62.641875756538575
64.92440094529559
68.71531542810325
70.29498180252675
72.07210333194428
70.6092886628586
68.55997820162662
67.78306479115844
67.65354599496996
66.58387877625826
65.21719857291818
64.64670736255366
66.7570048819109
72.02831894183058
77.35772562824017
79.3270262735328
79.25096220057586
76.70020222965445
72.87750873112768
68.80397711840376
65.63906734133869
64.63388311834896
63.64616627928379
62.612294222768895
61.94760017223515
61.63476485748871
60.90793963534169
61.02307953015456
60.94746373401476
61.68375290838064
64.22317111452341
67.57439073095806
70.23020274650229
71.74867322326384
72.77236478112596
73.91031526557327
74.4519596127704
74.34999053995081
72.55536451728341
69.33352933499413
67.8848979114872
67.9137558548576
70.1330001591408
72.52283185607735
72.62948087975057
70.07760836573516
66.14268560641783
61.59651244118843
62.31106021963613
66.74757703365916
70.161648213303
72.93143045124069
73.35877460156551
73.2482407473561
72.30328805032491
72.46512694968689
73.48283906969606
71.44618275424924
69.16089233683195
66.2376397765575
67.88931991551866
72.48820161432099
77.74834107331958
81.93319813070477
85.24934427952091
86.17733760614075
85.74716549289965
84.03260640224866
80.35088003632765
77.79463775840574
77.00941693617654
77.54123707869472
79.04014281112697
80.64277310996656
82.4434862597113
83.38228135567252
84.02297738682304
85.72800824867642
88.11534495256241
90.32736360525087
90.42191283296562
89.6422049503879
88.95860501596334
89.09885510498941
89.32514603837137
89.28953348593977
90.64221847426442
92.72079378598526
94.41606773198292
94.584964715514
93.20228633175452
90.91069545256133
89.03275488763038
89.64716364935178
90.73198054960602
91.86529927366946
92.46751250521187
92.20488337060456
92.20555381149414
92.45432818068751
92.14255585483589
91.9268848540965
91.9651667611662
92.84309917040223
94.43533204879905
95.2504933064059
95.36509423839293
94.88185220947203
95.0368419575803
95.67150503438403
96.80690821229865
98.41301506051023
97.1887917759857
94.8892629559324
92.05805326000183
89.42078220780347
88.85553924627642
89.11679645039844
89.80344309893808
91.52343137123552
94.73059142558563
99.40371625411645
102.81298692595861
105.49591515966227
106.57381333298478
107.4180811030795
108.53898155261336
110.4250043396575
112.7280570599012
116.12393789781747
120.49655236102106
123.64410329061617
126.65162047986846
128.34638587349912
129.3081626438842
129.7360246618352
130.35190404998005
131.3434983380956
132.4295505966519
133.37017704857846
134.42241688053787
135.00799829883846
135.72297463250146
136.45115987496342
137.02740384744098
137.55217119611746
137.241804009945
136.4595007160852
135.75136886141738
135.83457431993426
136.7747089069703
138.1038966806011
139.44495774147495
140.19904645619405
140.57613119395637
140.97519133903498
141.3137988533338
141.8775652213168
142.75925597103932
143.05522147652317
143.1611951750819
143.37700184205278
143.56759051309535
143.8153164456218
144.31177683961303
144.6754654467017
145.0261212802109
145.22278080619878
145.5319675742843
146.09603423856632
146.59021088567525
146.85711581078445
146.93828790383998
147.07390243379734
147.42953650468198
147.95003442708676
148.24000858175287
148.38845135316555
147.67268364926971
146.67195184999122
146.00389226672334
145.62492867736307
145.70536043392514
146.2702619332645
147.16829810552042
148.09940187287623
148.89257395499666
148.94739812691483
148.62412617895276
147.44479637852217
145.64706347792037
143.36082115653937
139.7834066765933
136.81623500141242
134.041641587658
132.40194312980674
130.56955635444547
128.2725767908627
125.57436796466735
122.99404316745219
121.09571303471687
119.07529837032224
118.10393401882581
117.06857784051034
114.50663007911324
111.79215769783127
109.00229467235681
107.00229500665061
105.05903749188745
104.23123188170673
104.48904144565857
105.5997467584158
106.01349382499062
104.83013428116222
102.78380369753478
101.7771307917845
101.78456782718884
102.00860742320307
101.76500701485911
101.03314503313577
99.85291719841679
98.40203767585581
97.62092349801962
97.65878691882489
97.5087205959873
97.30122518585233
97.37694342745841
97.52971425472123
98.09823485662217
98.08184343467747
97.21735287043947
96.06920619688685
94.34647054529468
93.96796006031194
94.09530620724377
93.67511379702945
92.96957594295111
91.8336226544735
89.74845548731936
89.37833956114817
90.04889525042864
92.10867045321666
95.05990509541681
96.9227375388003
98.86210782768678
100.75518507211181
104.69794254143655
107.37893703648511
109.80447971217569
110.01797774750943
110.73626936008306
111.76547161975067
113.21499415043859
115.88690001130978
117.26453542356944
117.86150398459152
117.58750470840245
116.85036861934053
116.62503215579183
118.59636072726578
120.73507615675122
122.76117444304973
125.01858491407918
126.13233135953965
127.60404456110038
129.34673661614752
131.00056991146528
133.0337638782292
134.66400831729356
136.80947664406258
138.42998148347405
139.57887389358962
140.32047855753743
140.75910486522292
141.0553778153605
141.53469010918639
142.3928766361392
143.63722678053995
144.37125274318385
145.1253645409736
145.67256375745808
146.12586798455536
146.8358739210795
147.43510745502027
147.89386044766678
148.19551770681863
148.2786284429617
148.63932654305665
148.74993894144058
148.97038572726535
149.41658439919055
149.78245546888084
150.25871438872514
150.14751234136443
150.148926760223
150.17948484246563
150.5221168439715
151.40893974977453
152.06578538711946
152.5884319679875
152.9683382864906
153.26331793660162
153.76974758288358
154.10628238054034
154.2772295091929
154.18427875662283
153.3868926000026
152.3403429841931
151.0463157647711
149.42309015983355
147.37790887375039
145.09158587560344
143.2598265223716
141.23459472635736
139.84287306520378
137.96828391838693
135.9071088067668
133.8206005397302
130.68067579494294
127.51901221828142
124.8966466225803
121.6015442273769
119.81625341217116
117.97446703549699
116.39949131749015
115.6890305334567
116.57448152207316
117.50737746580603
117.61140753551993
115.26867741603736
111.95980347561807
108.97107770671164
107.00236768201246
105.55609621369503
105.40965753145181
105.43010466150238
106.32515041311446
105.63851239091187
105.35280865187768
105.28746580152564
105.023107969297
104.86527492979538
103.81902870748216
102.05431273500463
101.04452482224772
100.20728938234832
100.73715946508976
101.13127606106082
101.73576650033215
101.6534799422371
100.49607858071926
99.94276266244383
99.46898146584262
99.20716330519866
99.79973410581583
100.01645033242025
99.65049493702556
98.72983763039866
98.09542210639563
98.29698199157583
97.67584421351374
95.59537090529953
92.30524318727107
89.13577871433412
90.10041959413233
91.80532757763275
92.47502782657472
90.51216582567719
87.98189644619626
87.17810498198516
86.6696848357303
86.03837460135446
84.76226148923799
83.46302081174917
84.38489060776759
84.83489739756878
83.85468178977968
83.28452638599731
83.876170376398
86.07367806034553
88.02110686095966
87.6339261271551
86.99394779679984
87.15499588485385
87.05323238273753
86.57584450970398
85.98168575496702
85.32880696825562
86.00564909503909
86.69907413560465
87.15728188502351
88.10437585543141
89.23728978618401
89.14328797603963
87.98252089824905
84.43026990629964
81.4659336778524
80.21837788946522
80.76535735887961
82.32223388237153
82.76707498996147
83.0208580931681
83.27142702722647
83.21924000133433
83.89802783920857
83.8911125734954
83.09413724428492
80.50900164710113
76.81820333104591
73.38138593850488
72.67424209897503
75.28713150364223
76.8230254034505
77.03509774839844
76.48841843614171
75.97602380937819
78.37660504695269
82.2734132967475
84.4968538779749
86.60237005061825
88.48970480064125
90.69839785804794
90.89772418071084
89.78146295757152
87.26408417500085
86.2876797440197
87.64674458678861
89.82299242145649
90.64576429463165
89.44568659610127
86.22627680374728
83.31112672577919
81.4033797242588
82.94619171660472
86.3498051482824
85.69282936185152
82.87984121180918
78.05230841449126
74.4290901468858
76.71876907227892
79.7455437919652
81.58908414943873
84.01127897676369
85.79789712269289
87.0142570966823
86.50089184933209
85.06460337890366
82.9730446351089
82.7294129595609
84.28716548783542
85.01571982126848
84.41494514099418
84.44715356148248
84.08392759601489
84.15045181834947
83.52815447936425
82.29490709602482
81.52797184365978
81.1898905780369
80.67540153055069
79.39585170990264
78.95544267796467
80.77652466362565
83.63586806812408
86.53903074259065
86.26005666710641
82.7621482489362
79.73601122186477
79.13753080932672
81.85869658129636
83.82314529388783
84.0596503108504
81.4407942488812
79.89545758751603
80.33253099732657
82.44175397517209
82.99706349661193
81.61927166431539
80.0396527304403
80.41751009011017
83.27351619665293
85.37339073735359
86.10050096391552
83.65568305090929
80.25531238183837
78.06308004771442
78.78643048077777
80.87524437844678
83.03912467190497
83.84034292987488
83.9557081669412
84.55279860956098
86.264677037015
88.78378255851045
90.18158763939141
89.7364180240511
89.3134885199228
88.59013724001596
87.23682512651713
85.95156929901678
84.72703383167428
84.85675721473952
86.95247149675208
87.99907388828584
86.14235936046525
83.57059860083929
81.50242097640387
82.16884375684182
85.32354521828749
88.12651404053086
87.95871978932566
86.02793566607012
85.04747781074575
85.80262496704721
86.14075476166678
85.18433584857544
81.50165647673093
78.36230076357771
80.5060021732158
85.14456801106476
87.53872298801913
87.79747388001432
86.86875641201794
86.76382053811967
88.8670391940088
92.26344408074817
93.09456128662627
89.59297162790273
84.98887311765233
79.50930977675542
78.05029678901113
81.38248102229244
85.05270960385891
87.22826885225376
86.4011957457143
85.1779999760604
83.94435265550877
85.81413718471138
87.96160601071428
87.20761973725162
83.84161989247306
80.04329660890436
78.55235046204723
80.62982446504175
83.50821299805432
83.47597707741905
83.49740897407858
82.04249935233325
79.86835351147325
77.31622517502238
74.75156236105929
73.37856158034417
74.56420745006734
78.6096449892642
79.5969615904959
79.54472688562731
79.3197099579196
79.86646767245595
78.86067908854719
77.31728215148749
74.47352996023439
75.15767957644692
77.93569893669526
80.50568519039291
82.03067788125607
81.49044669228115
81.34466488618546
83.5999437049741
86.77171593007552
90.120230113397
91.42424706419864
92.36696619154158
92.79839824134267
92.92772642159208
91.67466545628898
90.45956980237928
89.99557580146875
89.98114549961234
89.4723543949202
87.31776298829875
84.008216814815
82.24469387353977
83.74115536426915
85.87432949407895
86.8132575355223
86.44948223380325
83.37289346611252
81.53458485138042
79.90011069144
79.29212083831435
80.96601368375978
83.78650031417901
84.16651606001666
82.27965402887028
79.4254887024332
77.38296318909104
77.78282347223745
78.96379112244193
80.56098570835533
83.07513388090098
86.2090660447399
87.11467600961852
87.07122071609875
86.40708202500602
85.85802941333058
86.44322453518987
88.27704984573346
91.17122459114165
92.75624108794983
95.70323305282128
96.25173757859852
96.34628681491438
95.8982602261799
95.37312380772175
96.23167942752364
96.15177967631435
94.712296012545
92.54593147207594
90.22319020595513
89.82347441874687
90.47004992444036
91.44187996560612
92.8158236847412
94.13759071857436
93.73570352937152
92.65572564940646
91.56472411446778
91.60051758204261
92.72722565582053
93.92224280684286
93.54007949789717
92.57068265446462
91.94068265755551
93.00550107325502
95.08327520715413
97.47807690963883
99.78885106187747
101.5414573736012
101.89555074282606
100.35038360070332
98.33339830876376
97.22320647630063
98.3027980446519
100.23104914553801
101.07177229522114
99.79982791863362
97.4490553356484
97.15985976436225
97.28893152756723
98.06601204314701
99.16014122196572
98.16596920547936
96.42262573750439
94.02761190599944
91.25708378293399
88.7437075598741
86.18046422971886
84.22376451569032
83.2520042641153
83.80416589388149
86.17961200215225
88.41335497125945
91.1155664509136
93.52924069386617
97.05313744545144
99.77240354767731
102.54391705232489
103.96210383312003
104.73317702098748
105.2240725935458
106.1504784106081
107.12868020692181
109.1135909267557
111.06063790490205
113.53448465690363
114.75821469939036
115.02311095659596
116.05355807143233
116.70596162125727
118.03658353000615
117.25865534085965
112.15243093731233
107.3097880335599
102.3554068955936
101.47956245921682
103.52432148435592
105.50247371641098
106.25297799656109
105.06501009966162
102.85106738676852
101.24747476642754
101.94533792567883
103.60130924191216
104.2295468810123
103.71187927414333
101.53819040056136
98.95497340462875
97.95888314358848
97.43126344807365
96.66245076295989
92.53856514985996
86.98711935539795
81.83420799777466
79.87314184064863
83.06546214916618
85.42219093438268
85.15459975337531
84.16017385362758
82.85397550936491
83.00970153884464
83.9956033597397
84.01298115217018
84.04742508310963
83.5430607363234
83.03605010528028
81.78956870909829
79.32907445386945
77.1750172725171
75.60321675365515
75.65043779535132
76.15900133896757
75.93192469322608
75.53691000410338
76.17012959465706
76.75180800898677
77.21958721087223
76.98308623125936
75.79501143387942
75.82987711290694
77.55388159605026
79.63522898925052
82.73189568144332
84.07063700873506
85.02359600782913
84.62080263779009
84.22044118478308
85.46681554181438
86.00356625728635
85.98054353558987
82.82294176400734
79.90722982731985
79.48414109292072
81.71917590178661
84.42454013479883
85.73969347540967
86.45027967641103
87.26198130530058
88.2002017867074
88.70271930578163
89.48280127782408
91.28609089585669
93.37281746896811
94.66596063410113
94.90675779192685
94.11634517657825
93.09580310357721
91.42339427951447
89.39316875374944
88.56137828119817
89.64733127474881
91.82545518934239
91.90566336310702
90.0220851814507
86.84208184204974
86.11542263075077
92.12219642348929
95.65909700307957
97.71430881982083
97.54444480396891
95.07815039500733
93.27594032725354
93.0419901151423
92.97724761538866
93.25744127793529
91.22742742541924
88.28900005232991
88.0477247851925
88.57312690718294
91.64377658751934
93.04700950660785
91.4435542979309
88.90873079657464
86.80352422062734
85.91044846348719
85.62781071182873
85.16529247822407
85.63907428965506
86.97009198728179
88.69366187509803
89.51221940148847
88.03826332126572
86.46207098738498
83.91753386165719
83.3017667077733
84.14343420755112
84.55839761589196
84.52550412368096
83.55886098271424
82.98465730523671
83.51622302565735
84.55818907200286
86.01418479373386
86.85340916764855
85.6337311535959
83.86968654398909
82.83495296134406
83.80879231675253
86.1119337576742
88.39521704638591
88.77895956416599
87.67932642214654
87.29148359285378
87.65999992967403
88.96944753649437
90.20520102569185
90.58319714669084
90.2682188671152
88.44798197569172
85.95078927277471
83.94201392198491
82.22203311730931
82.22267288678933
84.27277308586238
87.4100130928116
91.86457365651353
96.59900200284574
99.89697114397
102.68777309885594
104.33896439656233
107.11354642370043
109.07907400143058
111.83224754957577
114.38751424109027
116.85948106009627
119.69381891435509
122.57383001103787
125.48706954541589
128.2634159256187
129.87489486116732
131.0033440068065
131.51942103173175
131.87401313328155
132.7528252364681
133.70793585569612
135.380491291166
136.85343501391142
138.2045503770565
139.44820901763939
140.55533913983174
141.39167632619848
141.97530504401516
142.2679889032254
142.455409454696
142.42886776148762
142.64634433421216
142.89162355318476
143.21595244866617
143.21595244866617
142.99919937270624
142.54013973861097
141.765816519056
141.34548368944428
140.7123320789173
139.75773620063708
138.4887998987499
137.23386669572326
135.9369872228345
135.15668404855333
135.01684146002458
135.30585659198903
135.54232055463115
135.67233224995104
135.3812523531667
134.2479771169851
132.62024128224863
130.96101866605295
130.87516351376937
131.16396520499677
132.24926495739496
131.34939193300875
129.3570216343823
127.4207519967882
125.8155948496257
124.35099615617953
123.37464671882684
123.71924157652657
123.67773054675862
123.30631958594986
122.72027410818188
122.33230765360885
121.9122636297954
120.95135521472801
119.39631249093468
118.15302019508671
116.72617605021254
115.56544683813763
115.01719993876543
115.44175205267058
116.96930322883466
118.73114119944438
119.70210048277968
118.97062731274424
117.72786532581985
116.88534330031085
116.78725973210923
117.13070739325379
117.88912182286164
118.55408179683857
118.44195339144484
117.13372433110753
116.19354665717724
115.73534501931464
114.32327261503676
112.92139959789975
111.20889022400532
109.23494508705485
109.3294466756018
109.83824039437003
110.04701851265787
110.17830976567843
110.08369547037034
109.48294154587278
109.5061672929987
109.385963228414
109.33582170141439
110.03748512449363
110.91945183267606
111.31042848175275
111.54687968058795
111.46936382461305
111.74544694687181
111.45556201258886
112.1681518242771
112.6875812062334
112.71227092001367
112.29831063948895
111.21644753916465
109.59680393120509
107.91369587153355
106.99293948603518
106.05408670045767
105.62292789783909
106.3850587135357
107.89623465094049
110.73768845685902
114.07427492600232
116.77903250672173
121.11602732878328
125.79773051805088
130.41971549164413
133.7201553633737
135.03169262555676
135.95510244431964
136.42641419203323
136.8164952015727
137.28482945031678
137.12599173887537
137.02079035492574
137.0739110031907
137.3858169907117
137.7385374196668
138.29037964092413
138.45648119747827
138.69842053123807
138.77039663550673
138.77818344183294
137.91316922722018
136.19856036391874
134.74787919208964
133.85975049820513
134.1533129384183
135.26655178392625
136.24508880377434
136.47443898752576
135.76288475299566
134.78975603716327
133.34510186827606
132.84194201637496
132.71862323308028
132.61979942333892
132.68182864882425
132.40551114342063
131.91690537826628
131.47882501582305
130.9094459873848
129.88584737165849
129.19309244587737
128.70315186285032
128.67241632687532
129.5624982817463
130.3309980003746
130.70536242586306
130.90569653707817
130.481701924626
129.66004129160407
128.58778033462855
127.4607902431196
126.80490830309583
126.58897979623907
126.69939190764416
127.16081510297013
128.03102886918606
128.5554797249086
128.08423199315408
127.4990938790179
127.01413813464924
126.8959760149071
126.62746754362371
126.06089306823782
125.02737458785766
124.21966509638287
123.7185676919619
123.64293648591247
124.37327105474196
124.97317166058698
125.19755479987204
124.5252642517763
123.07571464878279
121.62998847466548
120.7097060851027
120.82499887743003
121.25356341927632
121.59658122650544
121.46284456782355
120.77700094574115
119.55056293990506
118.91318493311685
118.26351847948746
117.52824091756543
115.82016032995743
114.11739255909704
110.07279637485057
106.94411626086335
104.74620080702631
103.64936479364556
104.16931841440888
103.71372832427932
102.08340359944891
99.95074266572449
98.4353213934349
96.812080695268
95.23618393987873
94.1326208506127
95.22667606277174
97.82305765997747
101.41002896622659
103.47043730407731
105.01743630001569
104.44933453640577
103.86455848712278
102.52373056958777
101.58685517865804
100.20177736695935
99.97670083404668
100.7536030964573
103.22111176075512
106.12953657868609
108.53350782163268
108.86152793352123
108.34169201175996
108.04569360468005
108.35139473991707
110.44550841447507
111.39366753093934
112.25850771415529
112.53966460138794
112.08968670466349
111.75120869132684
109.44028190949138
105.8238279704862
103.06718433426016
101.39042101565876
101.16102353438527
101.34895114573716
101.78837333797183
101.50616319777019
101.67587368481196
102.04551581021066
101.66266021223628
101.40340260920338
98.85530979759149
96.92541550958617
95.59484208299848
94.95325804877018
95.95117492168055
96.21876861064669
96.02124541611249
95.35107172269215
94.71172408211811
94.27103407535702
94.3139007825458
94.7645738987639
95.95967688380144
97.31786460096828
97.80991324757821
97.55162257832865
96.49324788230672
96.34214392912115
96.33675261808419
95.55043729517256
94.78689500057075
95.64369515256844
97.06542596878194
99.82230580852409
101.75965630452332
103.31492310868525
103.32401363442901
103.30786051493676
103.06450237364346
103.9694857890123
106.45287281179971
108.91652285215865
110.17068006365747
110.14549730074314
109.9814961278205
109.72517774621082
111.05960217725887
113.32776973030518
113.74965047747924
113.61952663328633
112.53694312892033
111.49394762343772
110.22970742329994
109.42145368176436
109.40835028803524
109.9887236718452
110.71663164382514
110.87215363625299
110.67517278429352
109.3022365580232
108.50600094074612
108.45681543445923
108.49873184364114
109.29753048427244
109.04297634512743
109.15698725557588
110.2283944794854
111.79381976942803
112.46868753182594
111.0448679887363
109.24839800763418
108.03704387703566
109.3172952273391
110.08584922911206
109.79534207239999
107.68231483364518
104.98282284531476
104.7061927879065
105.99200410614986
107.17681722037715
106.82073766306402
104.99995554654646
103.6700512638269
103.03313377349525
103.77433427451192
104.41729651986972
104.69231401900609
105.30925064706523
104.42488340045567
103.61268817074438
102.18922725094022
101.45846990532627
101.79408419340662
101.39500668022487
101.41162518634042
102.01687074197406
101.93050222703064
100.69366673742702
98.33311186899225
96.60933736440536
96.81893571339661
99.22127859389582
101.9117919428926
103.14426880744858
104.1047135882527
104.77322133863046
105.70961696285895
106.17204988716554
105.17756083621573
104.355675795331
103.73541085794993
103.79407947550818
103.67471614536667
102.46553037432582
100.8863065988254
100.60075940362145
101.19926817464847
102.61320777445353
103.43033071898316
103.81396013911989
103.15691726584217
102.85618475255077
103.24293108274773
103.56139723057657
104.08902754055592
104.50164344525408
103.76658852493682
102.21829825997158
100.9958880902171
101.62276373448945
103.45670603198597
106.17364162993009
107.57986247355772
107.6810402459839
106.63679150627345
106.17766172140672
107.10245004241881
108.52810289483286
109.74501786283932
110.57038004790897
110.97516417150308
110.90031645738858
112.58797875300857
113.5230843723905
112.30510581278463
107.9691920477305
102.77621538008225
98.65392671870408
99.47195172710605
102.6092441615137
105.27772880252934
106.10142639087104
104.38372340355566
101.15113195363472
97.06349187905879
95.6034404301683
95.07629253035107
92.46427931077915
88.697181320646
85.4828252047781
84.10548462513798
85.71906367008518
86.2385560147558
86.14514964949385
87.58379786447706
88.00297963273475
89.11400497594981
90.77983065949496
91.0020858332749
90.64088725557191
88.2507390653237
86.21156040237943
85.8803462155256
85.22740778440154
82.8588515968536
79.10724745215872
75.86875303677273
73.88568036592758
74.98413864702749
76.05651175371221
77.27173604205399
78.03308189313067
79.2380341743199
80.41181895967807
80.62235438625046
79.04494561645728
76.97328613746795
72.98764534038557
72.4032009418508
73.6245735481673
74.22669532459106
74.24804437704748
73.32104305604174
72.31136845629912
72.77247244881906
72.78704528730117
72.2772540780714
72.35580826745768
74.42935325268314
76.80216282644277
78.56449810161558
80.58278583273334
83.48638991892474
85.13813928289181
85.74206564479684
83.28421770429716
81.73189380533908
81.39823518031724
81.61285942629648
83.04256353645765
82.56951478002631
83.46782466936529
85.70806098484256
87.8691088426939
88.14459165843806
84.75194751980413
80.19581238410873
76.93439826373817
78.91689127771465
82.2630320080834
84.05121533029798
84.55827973304957
83.134616517188
81.97062188761114
82.39704817338314
85.88830744138716
89.48916845336352
89.50332865300909
87.33177161198901
83.09227843674809
81.00938562493009
81.49578124525381
82.3853100016439
82.34518607161996
82.90582368545994
83.39593315437372
82.71966414995097
82.24369888544268
81.74708786520009
80.92248093105857
79.80411556791645
79.4311283092886
79.88736268124175
80.63702582037676
80.68219269614187
78.88816179636972
78.2548345716161
79.1928841609434
77.61611926383475
76.58811624627086
74.88160265390029
75.27823094211072
80.26712651286586
83.27498076335584
83.62153730488936
83.41530798690519
79.2423194705412
75.64520691428383
75.95852620086319
77.98999844734469
79.78427099995207
80.0291385106507
77.77736650290888
77.80803818936873
79.44326471132118
80.11795651643679
80.46631757689309
80.48771896673048
79.19038621708539
78.1744232576613
77.09031288990886
74.48788686637054
74.48568796989547
74.1108841868652
73.77668438281188
73.5966012925391
72.18049696544269
70.74154696713182
73.20779871635145
74.37645896604523
74.99897811859033
75.29572727242326
74.12165257003443
73.68396662965526
73.14582196858049
72.80546358665848
74.78288245700278
76.55445001657165
74.85827865041044
73.12968732146524
70.20050120211569
70.66734057676351
72.04522649109866
72.914582396255
72.83056011971871
72.83154929129691
73.80633945625198
74.71844979841411
75.1552494312541
74.54438000067965
73.93469162271566
76.01347023956917
79.02195658250214
79.00150042205058
78.83420654261172
78.08136276600356
78.85125321169986
81.43815049074459
82.11867763849543
82.0398315066523
81.98491963138703
81.74136242830552
80.05566442932412
79.8397591157833
79.67385095171593
79.83469128790982
80.11131143385202
78.82214125644865
79.61291500519056
81.60110245766762
84.09520366676878
85.29321263702937
81.8247571417742
77.60070994135305
71.6740377463907
70.4221822589323
71.7165290818206
71.7897614783036
71.00037611413711
68.35248552229578
68.02257642299894
69.73481684782357
71.01377022002296
72.29982998835598
72.8540932918245
75.45363385921435
77.34337042553585
76.89356934120441
75.60579612085458
72.8171032413939
73.47702464831234
78.82849192595147
83.86620638336959
86.84884068433578
86.407552281769
83.84243424432593
81.74068526884807
82.82441024403678
84.54256845555054
86.17597615406858
85.37804092284568
84.36785468767685
82.22849687493088
82.81525920931148
84.271590798904
85.38114286059542
85.80118611831244
83.86668734710057
82.61997134937675
82.4140869801358
80.61142357364238
77.66816307213861
73.09903181327884
72.71608170898753
77.8721286701603
80.97501608561831
80.95246588820679
78.72172026533526
75.5208975368234
75.73216816633253
77.63699429024382
78.58958378035297
76.27041489529975
74.37161618445624
72.10976790073613
73.88514403882795
76.02580787933579
75.20924553935073
75.59480168963799
75.94179018527589
78.95160009397121
80.20138568930301
78.65976386738177
77.36220761734131
76.90814015057745
78.99771484175956
78.55973845346178
75.17319954351922
70.46342192987949
68.69548475558393
74.7162545421397
78.41420978627218
79.99389518929117
78.98291714773934
75.99829215938179
76.67807776954561
79.93551785242369
83.30346886626947
84.62740687027774
84.97625227279502
82.73409181642414
80.74042120421748
81.79085614913942
84.1308460878901
85.10985275299772
83.85335516758522
82.80358194640161
82.73575084230613
84.14134949094257
82.82846416572598
81.03787472247106
77.3832926618426
77.43986925178731
79.96081731627814
82.01978465543223
84.00501909141835
82.72825434882485
81.71382099325437
80.59589571992326
80.09883691997199
80.69433513922337
80.94918945125303
80.27003186577949
78.64213999330781
79.13838162518925
81.10646781820162
82.64110727043558
80.51951687979945
77.55100717434763
74.44152700605237
75.54155116504363
79.30773581407261
81.19028458661644
81.16648181589812
79.89673661225359
79.33507386555212
78.89346999403182
78.84267325858997
78.49541598584558
77.98569755151155
78.66394268889776
79.1273649178129
79.3029577259164
79.60225086946512
80.52689264871937
82.15317927013457
85.03310129645665
86.7309033413444
85.99063858261069
84.34915201945468
81.46072471672244
79.68983240404125
79.89489120738392
80.5528732890535
82.11475490372369
83.96328017531548
86.06926564112061
85.77667827972101
83.85373419786055
78.5489688990779
71.42106444988536
68.23409538663198
68.84434751284996
70.25263285850153
71.66155017713703
72.52996630372037
71.95567392114138
70.85335525645829
69.65640051773488
69.65934241662384
70.37943990985275
69.52289984347343
69.08896886897669
68.15795628357186
69.27662883003266
70.7663969353081
72.19153190863906
73.1863857313205
74.66921839591535
76.6797338378421
77.76693120922864
78.86157981741768
79.48340733293381
79.1236078672782
79.5553705747853
79.70604169727378
79.41398308443623
77.51420444258171
75.76649785764891
75.44105672762625
76.02968526698547
76.43566182920677
75.40762177839969
73.59873008741661
75.02919772717571
77.53767975725904
80.90000562098336
82.35277444389085
82.21504596326716
81.9801854517732
81.04657163828344
80.44665620283082
78.22063936885809
76.86088923181043
76.11755918698188
75.92967883476582
76.37109338465274
75.87678658989648
75.59961958456107
75.31311866172591
75.31219611016617
76.37117325119547
77.22615319711248
78.16712824982602
78.69645820457089
79.3716373105651
80.86798833416631
83.17175679111983
84.16071219479504
83.5957257591249
82.38376301154464
82.16329162195204
81.28061008190646
77.34495819204423
73.48235830308657
69.857230521992
71.47927240417538
75.92746475205149
79.23486197937098
78.65688058639758
75.33834427377839
69.64602138500392
64.42420985713302
67.8360577466991
71.5220876669074
76.01602368759751
78.54114232337703
79.89610619510943
80.44933819634637
81.27398407299157
82.3265136865576
82.83510301593809
82.81093797879309
81.13509039825894
80.0119427455774
80.50834691592952
81.51582668312334
81.06484387371714
77.21504160563774
73.29440213090416
70.63641877673976
72.13453258306005
73.88495723108441
72.62840382178642
71.43087868675356
70.162118475829
72.68216608876935
77.00523508789259
79.30252004664275
79.53122080039915
78.61905939021132
77.27587032852641
76.727734452227
76.60850981863268
76.92331546417728
77.24349842586967
78.95565838622156
79.52750692635206
79.39127910413904
77.96937194195758
76.17950410272458
74.33454662542192
74.85795971128229
76.50732449541422
76.82083932786153
76.6498470505861
74.92703432585652
72.82543821492574
72.95495093616296
74.33272263842883
74.68862222116347
74.86361216873557
74.12056983343103
73.12125996040675
73.46475016640134
74.60344251635497
74.2429182347499
73.51189629001713
71.08642444755493
69.3093930012411
69.94939198360163
71.31347465855748
73.98187241941808
75.59117829884742
76.49715468375103
74.6831358001415
72.72353030321075
72.80092791966143
74.38801555078523
77.81958000260201
78.76870746478275
78.17292232221797
77.76379531577463
78.53721349185128
79.67073682549007
80.8242987287401
81.45570326530344
80.92154881653009
81.04894497135247
81.01251451031939
80.71620140465672
80.20808935972589
79.352407804681
78.22794041226416
76.78096747996659
75.23953102431202
73.88896159833502
73.70203858724024
74.01337712944033
75.44662656881968
76.91323284404591
77.21973314312238
76.17899742729279
74.0942723298868
73.51544704158718
74.66136132527467
75.55490113504136
74.11394223906586
70.95548886196235
68.43624277757283
68.58273327002676
71.35973645232998
75.50137463722179
76.78817611978326
75.95007822166616
74.97356727775121
74.56625126537689
77.87545932663336
80.81533092176824
79.48399301827567
75.59776643694207
68.53626661818902
64.88121515267181
64.43378939267227
67.29395467820646
69.92478367563288
71.24666436858699
72.31571644690872
74.15631126066738
75.78066747372966
78.51630008604405
78.72145639018702
78.5523284254215
78.01699110039462
77.28455930243601
77.16803798255273
76.09694955220087
73.5424545004301
72.7075848420946
72.42429207753531
72.9581052087495
73.27887172275771
72.73802548756584
72.65939486043675
74.10746559868865
75.77674972154888
78.4478731627178
79.39484635485094
80.39445858817864
81.13533586491846
83.55950562423719
85.73760029339512
86.47544424765115
86.34611606898319
86.30961328610216
84.93144340290327
83.20635801447807
79.57653901323155
74.39307689026364
73.18303139037303
72.87425981966724
73.23321386839888
72.13328904161992
71.22250666157521
69.48419425960594
68.8308333767888
70.6520965951273
74.7012092768829
80.69154692255094
86.11483014928336
91.07091344877038
91.62561809156416
89.06480552943871
82.92468724497476
79.1106008649667
78.63710222636695
80.82947017507813
84.62929960575934
86.62548995936938
87.31937711311484
85.24527125015312
80.19526212529153
76.45398807950619
77.37107563397397
80.66488312233632
85.05189304903519
84.73794958324947
84.6185872175425
84.4098465654494
84.83381533483703
87.82809561917816
90.09517279445411
91.09330104482606
91.42825792227828
89.93127210541883
88.53365243022803
87.4332461411044
87.28332747563564
87.20015480462274
87.9605956219446
88.70975359993295
90.86914979898431
93.05773293169872
95.1379141900124
96.68162495368149
97.40556849360654
97.93327261691279
98.63222737548419
98.68801717401821
98.56074522682724
100.255652584718
102.38348379516242
104.39153038061187
105.09576735986488
104.87521590836332
105.2462212026424
105.45506372998608
105.7575245727273
105.9949577857058
105.8307587902132
105.54260000029701
105.56753836995753
105.90536449180551
105.9766116077351
105.84720945844066
106.14155960132913
106.37552507722481
106.77937332705645
106.5387160062018
105.57147694412554
105.34363461102001
104.95693042898651
104.36179904217286
102.40889045991725
100.15555935856295
99.01926589878273
98.16463443148668
97.97653628250362
99.17372074464248
99.94735603102998
102.10825441881548
102.81754153311144
101.95593774620401
100.5227643562609
99.06153791877917
98.56774872204291
99.16275637331714
98.13021100307519
97.53418680455178
96.55300972797244
94.83386757376617
94.68146418472715
95.23522215596434
95.75921496442659
95.38493405675594
92.70085657162916
88.87568416498637
86.30858863733354
86.71403537466583
89.25846430433386
91.22842435154173
91.58723457687115
90.93907809105347
90.29547298834943
90.19123618525397
90.52989717306788
91.33886914377916
92.28818691803775
93.29222891822043
94.80774620490159
95.17014659544992
94.61088018329514
93.75646865933504
92.88981145831228
93.10971023766398
94.39047883615798
95.97302163052987
98.43620441640515
99.80402171936502
100.64662325251449
100.64742342143217
100.21766450682215
99.77026210221402
99.11164520427809
98.6151679705199
98.24442165838433
97.93507376975113
97.81907735843042
97.23806609961464
96.42006892661766
95.58940469448125
95.18270199806669
95.33476990371467
95.28648306833531
94.41007613046281
93.29959416420267
93.15086760289527
94.11027518927257
95.6319932448676
95.53374599951043
94.35866322820708
93.25997741463443
94.09309762179286
96.20689695952197
97.46839572703675
96.97755290675484
96.43634153746423
96.49486353780344
97.43461712508754
98.53092067216126
99.31757201308672
101.08722611480844
102.4558576410222
102.94619565657861
102.99981834667399
102.40513073398955
103.28776271212624
105.10278559562758
106.9114228943387
107.83293542064982
107.01065731602029
104.86146169768038
103.36970096346681
102.31833904988889
102.5466476991383
102.89195530665431
102.64898150623314
103.00445163295399
103.3803305561768
104.20448540508609
105.73937023688134
106.61340404888817
107.72893664600068
108.0656953355159
107.91787197151783
107.55585624607006
107.24890295614411
106.83977738449873
107.52346840152488
108.72019356655572
109.070130123064
106.93586982201545
102.55084013373055
96.60603036515586
92.48215861950393
92.66682173261704
93.24969822168735
92.85404117459139
91.94591622781499
89.28760242838467
88.23469961346358
87.88362315081783
87.90466348335929
87.90253674204116
87.88284425599433
88.58060875535762
89.69913280814967
89.98423079017044
88.87509252326072
86.40020691131595
84.0417991174098
84.31484009299894
86.16687894963589
89.1349997558233
91.54250885222588
92.74146631623142
92.48028211072219
90.15987645695657
87.11823181927325
84.64326649609454
84.54711187836632
84.21918052879963
82.19267347785272
80.87855168358423
81.14232216946161
82.04050313062217
81.80133470722473
80.19862100243776
79.6551906009296
81.17419057006265
85.29167002272548
89.13672222440744
92.9274788703002
93.72516325420388
92.63718182712513
87.30263368322831
80.8488909703513
76.33559489050722
77.00622300964322
79.25842160232752
79.66954548149997
78.97108310071637
76.36369447429756
76.95724511102595
79.5793532173491
83.37520086150205
85.75523743788207
84.6261803404013
83.37312571295546
81.49361124328601
81.63610418366586
82.90196630892463
83.02964868381682
83.23008561484227
84.35278240411382
85.7717093618057
86.71474557922014
86.90266110648882
86.31699305440331
85.95818791083337
85.09818835774564
82.55247384685671
80.35470237085
79.72981569516794
82.44316927390504
85.07992672760052
85.4219856610678
83.55971432217348
81.36373940046037
81.80207658788046
84.14711983145025
87.75514844290461
88.2950175325978
85.86941925524422
82.33925133177897
78.02532540956213
79.16486536996543
82.400352526661
85.50477102168334
87.22682951452947
86.11518241944357
86.09530552295219
87.01275923903823
88.53485534430163
90.02880992194788
90.35432648642903
89.22781612629886
86.8945567291905
84.99045100118366
84.11294075621655
85.0854541673233
86.4570112052725
87.41475934474252
89.11118901057732
90.20141344890197
90.241482697137
87.69977481157477
85.0265660044063
83.43400236536665
84.13640201156655
86.9240232273268
88.81227346301215
90.45371439673012
91.68298350722438
91.9561192642311
90.93774675886793
89.05627670139273
86.68526784832603
85.6418024820018
87.11070248181217
89.91207004756642
89.97233465205863
87.69929494135198
82.14497921490639
79.07612275852622
82.04748726713112
86.18542984682543
90.25868805228953
92.39175639651468
92.65902969170303
92.52815886747777
92.69141899131516
92.77984491547188
93.13559821226835
94.10605277315805
95.29393991069485
96.33967214288414
96.25423856187543
95.15020065042677
94.78049543689546
94.29974636919694
94.5828963657093
95.03879195673936
95.60797807396908
96.7419611581858
98.1738284971629
99.67294072627153
100.68011262438175
101.55063978625105
103.32023338286409
101.18583273871539
98.61675116618471
90.66861234295511
88.44990155358882
86.19021569170056
83.65586601989202
81.62120121620706
80.58088166811005
79.71129881332124
79.70411676070658
78.35981090830649
76.63472656507078
74.8446631901707
75.50393075790757
77.18872556480083
79.14546507896384
81.35574377674051
81.01599000575523
79.37933878948122
76.59449100627664
74.55506057505062
74.75739179847746
74.7423437280681
74.44630374344678
72.80337178997047
73.33326261223799
74.75273125008637
75.22544187410853
74.58663121254206
71.82120514159303
69.56635691094392
68.44431123983875
71.05786497842091
75.31992126778914
78.42053233533154
78.27829301426681
74.54886325235381
74.26360232825209
75.68231481581603
76.57631012392945
74.54290844830653
73.00420746233635
72.7012791980122
75.24141606787548
78.10730524337698
77.71566147407432
77.07599796134421
78.01470913857167
79.65967261440589
80.6834506955158
78.26705654494086
76.47024750478984
74.87798170330291
75.04854223570494
78.13284508005255
79.8562851711766
80.10480747668721
79.28802752022503
77.67813908471523
74.68189919512989
72.30390779726808
71.52520958653312
73.30140152640475
76.59388827298224
78.56616857653168
78.78903897718916
77.57199654010711
76.28182056514478
75.72944526081554
75.80648630377257
75.69393378559793
75.08577026436339
74.58956184235248
73.50567900841281
72.4689953518585
71.15750999752458
73.46887426273985
78.11923611971763
80.95596189521483
81.24710865694982
79.56870904841804
77.58428127610435
75.5499858896668
74.08974776687998
72.57557232937222
71.29676355718645
73.22308429340904
75.61190407244742
77.24232610511021
77.27821309608866
75.77567731585182
74.45203402702401
73.39107374207111
75.74048695523935
78.01242828311489
77.22257531753077
75.36469321480533
72.77860626703608
72.97447436329581
75.15078031366383
77.02735170383185
77.34256875559133
77.47872408771325
78.44848544755344
78.42867888700148
78.04568225400486
73.73060923325606
70.24877505435536
69.23320489445032
70.41196798836391
72.39246263203617
71.84453174641145
72.37715198080538
74.68952716365882
75.42978687565679
73.30404407929514
69.76258506764958
67.70557674620778
70.66782577752068
74.29925174594041
76.41356703919494
76.3244224593701
74.52977824383763
74.53520318757167
76.52130187318556
79.85123274993441
82.58853423389264
83.23214130953872
78.69377661632444
74.2067004589006
72.08156634506722
74.22222747299892
77.26008432943927
80.06947862218802
81.45407659737143
81.1422165515848
80.08032604735766
77.70510206219595
77.88779265659855
79.31937156058267
79.97593732387722
80.40653523832592
77.44123364101311
73.82641047638398
72.82795489993111
75.66101123070597
77.7350579983128
78.2069864392875
76.51519305012405
74.8627400617671
76.07143233162796
77.30838303762133
76.37685237563277
75.42490261233408
74.9752128810649
76.37110644187149
78.19100648671646
77.0030873982184
74.06229707163129
72.65425227725474
75.80418717484389
78.34073466699917
78.71407171803106
76.77244745267622
71.8099829609825
71.11807914380407
72.71543177580598
73.37088168440765
75.07661196031376
75.22363884284263
75.89547477193798
76.8435184256135
76.97117384302243
76.11295033994098
74.40132595348689
74.87915064452993
76.2412931426782
78.38485063496448
78.96740368859624
79.11192820864696
78.01084103046853
77.71303937592731
77.11096124650877
76.95468936516782
77.87182212475244
78.65778192101425
76.77534126398655
74.51069620220952
71.83082429105706
72.76968154301389
75.92394124684068
76.26439645645554
75.24161479654173
73.97477754622982
74.04118237653039
75.02282358237322
75.40232632396743
76.15819810132
75.1546173906032
75.50572666410551
73.4605133832357
71.86369486134878
72.01643912090428
73.66325964515859
73.65070349286471
73.19881587539504
72.26965515830844
74.2535834531274
76.9125081761412
78.93669870518998
78.77000766660832
77.2133576475039
75.73394276230067
75.64828873423964
76.87012113673258
77.75018008511414
78.15567373340522
77.55566250518473
77.38816426879374
77.0718624609843
77.53866181755707
79.66487555929982
81.57425778667064
82.94656621646739
83.48126015822946
83.06044795093334
81.28484901161565
78.97592561697195
78.53077618137745
80.50869347004502
82.29864241279621
82.27380805902257
81.60077428789238
80.0351245281185
80.08459888743184
81.10438789882784
83.12364715104277
83.78368327476345
84.08381626009175
82.44964692158104
81.94288440708827
84.3930648115294
86.25407750547606
85.3375722865866
80.78296987553085
74.57448250323286
73.8604523098944
77.08957560909839
80.00201231073446
80.49007015667272
79.09689898124225
78.04914554287102
80.03484887123284
83.19846588597767
83.96023029371392
84.3564415764829
81.4348786782764
78.25083261712409
78.5578515687553
78.96029821057984
79.15595981007453
78.45121469673614
76.34680322938848
76.99553746341944
78.17604643829702
80.24398701858347
81.33757005148826
80.48763437446058
77.7627021212369
75.58008716111964
75.9090352577579
78.75060158337826
79.70673959994717
77.91425241373375
75.66082345976852
73.32207149136377
73.52915677328657
74.45368881292376
74.91079324828053
75.6939537556008
75.53001502601315
75.82366293832973
76.58482093434846
76.56099146687583
76.0760282546223
76.4466307275829
78.66793780409952
80.60754835226469
79.5733514642105
76.38023256892807
70.83543393825562
70.56679322966296
72.45226020712943
74.17018161244684
74.73065286672934
73.43574628341435
73.06614238933194
76.86990350622321
80.29992797877507
81.99047131871399
79.57104696212048
77.87004744307812
77.52873196861921
79.86355532746849
81.72647716048394
81.72304258037143
81.61169860819045
79.69257594594829
78.9710478974607
77.61571755610461
76.39922254057582
77.91420900043498
79.17498016068585
79.42592339164
79.5306508600396
80.83538955639247
81.123388866115
80.88182778002631
81.10863794287938
79.86764775014016
80.64314954777483
79.91550156421258
79.49195647606462
81.31602293521726
83.43248135261244
85.33051760732386
83.81257797906927
81.2588600353852
79.09104504347748
79.7794704589957
82.63907046669456
81.40109417858977
78.37155900184966
72.5459958891975
70.5234880135246
74.48017417568877
77.47305021572335
79.26420356874601
80.98875984669166
80.11855907339876
78.73774427675109
77.42719739495277
76.55386998910384
77.24653274864198
79.5232219550917
82.08373930784671
85.04151289263967
84.75489459176184
81.29035348873344
76.59793551398874
73.0380618067956
75.8400392866218
79.24893584163645
81.22449532962054
82.57642854452801
82.21856538431985
82.38918879609656
83.04160631741283
82.12328166985358
80.72930168204478
77.67666691753925
75.94415628758979
76.1989317525672
78.34589519357355
80.79537495455817
79.89736837841392
78.44885487782963
75.70525924745509
75.75066238641047
76.99374420712951
77.42165781938328
77.0514739806534
74.17724489187768
73.80318870171315
76.79312592677645
78.95365064555705
80.46179559080261
80.20057720464139
80.50453201848887
82.80128056843598
84.72316378938282
84.744060546587
82.2285868895867
77.60991491594069
75.77936531520764
77.08701064252148
78.47046037626583
78.51765778195704
76.04209337963114
72.6939468748703
73.10046598119419
76.61645258088515
81.81628145494089
80.99366581358112
78.70318938157658
76.60905800138269
74.55744611385131
76.4572910958044
77.79121612842141
79.07649461958223
80.80746854686743
82.22635095668032
82.18037804973616
82.67916332433869
83.27619155475593
83.96954327299268
83.85345903134679
83.18341981752619
82.0192909235752
80.35801965799308
79.47560539160261
80.40729097263804
81.45530327175636
82.6563714422904
79.79078539982403
77.34594615370717
77.68397389611567
79.63946008446867
81.84841170746998
82.39342430525262
82.06675116329782
82.51499127985052
82.9149887564158
84.31536941214368
84.60045120289315
85.18262609798968
83.85223311227385
81.62204203362049
81.05029797131178
81.7449378389924
82.88762729812603
83.46365900382057
83.1345422129472
81.82698299802679
80.36120128604595
79.21445434489819
79.93957207024145
81.9058973187578
83.14689581326454
81.7926737155191
79.33819406313168
77.31723568832037
77.12656682146371
78.35019419851717
78.5420212971914
78.45928154196532
77.6711961911386
78.8835462361152
79.45534054255677
80.33448291030007
79.37210048829763
78.86932203813383
79.1289704603787
80.22324114728988
81.76074571104465
82.9836688813681
83.5077233660284
84.70996620205531
83.63314408233813
82.36548447174054
81.95310236310326
81.95072155660303
83.17169342670877
83.15418733300059
82.836791040931
82.55656111133997
83.40171443741154
84.95580665562537
84.34412648541107
83.10449373266076
81.41763666350172
79.51900801584199
80.87485332990371
83.48824843212222
86.07836717744502
86.59363814208368
84.40535205511115
81.93567113912503
78.38930101886599
77.48558432478991
78.28454889465527
78.60845886893576
77.88179468856254
76.25349569694276
72.78857478779798
71.7315192188886
73.80832263626911
75.15191241709388
75.40051070533575
74.84129732763621
75.03886867797281
76.95700392335829
78.16765688038647
78.61832590364529
78.64647741977049
77.95184414618122
77.95382473172712
78.4252522266126
80.62487085673209
82.37733061391978
82.86095834593888
82.92983168546498
82.00264224009122
81.7705639756303
81.71680535222589
81.53445938598449
83.01578884846037
85.5008354420009
85.99681864100103
85.17578298823543
84.917203853211
84.30324696748275
83.95941153755945
83.40351494256241
82.51748685709867
83.1829554643843
84.54569441365537
85.7735648360329
86.47026883404146
86.3105224121945
84.09098234212188
80.1639153091484
76.83420689099034
75.46804759152292
77.59011945857642
79.38192043565255
78.26205360904967
76.79117399867832
75.20863318193736
74.850528963077
75.84656870225315
76.6841805980988
78.49238204228836
79.59085317593419
77.1650858036275
73.1274644975986
72.21162752390191
75.10908384758774
77.19560577201227
77.59440213771282
76.39217533492209
74.58876621915465
76.02951482404296
76.20023813712533
75.66651298714135
75.38049653085879
74.5524505224675
75.59306033527454
75.41971553286933
76.02836855487385
76.57928282633888
76.9225397717931
78.79975676026889
80.61884951161525
80.54769748722087
79.62701429559652
74.57991520738824
71.82650930250475
74.9490814293477
76.94433055070027
78.51411768518993
77.41885349042359
73.81212711053016
73.04851217900739
74.72856414036907
77.22773215811402
78.91266558359665
79.03554110853337
77.769392457419
76.50320928147788
76.75564883359843
78.16822659019559
79.56446416684493
81.2891263347586
81.3271906481691
79.97867200664321
80.40721385135859
80.09527736304217
78.38293979570102
77.10875590680536
74.45364089117074
73.0984740899981
73.09703507211276
73.37734547900544
75.19789311762077
76.8386744593449
76.67559220931781
75.07728279668683
74.1116848149869
74.57959231510125
77.69725684746464
78.55461781047329
78.51244076934887
76.9819888763507
75.90397988147927
77.98538473753744
78.56278996586478
78.17080134670002
77.19832466697086
74.6606229337086
73.97769651878224
73.76139780009797
73.89135231601739
74.46424259822598
73.80657798556182
71.77036662832055
71.78380744373888
76.88232990934442
79.29887169010188
79.46594066329102
77.3051776715468
72.62632412542581
70.92193789563443
70.93622316230697
73.06003895541575
76.08330053366515
77.15944847641006
77.57468506599028
76.11329534399141
75.15858460764258
74.50074212073045
75.20657612726208
77.51283181067944
79.13453432526649
79.34105231916287
79.76318384679696
78.65599836932009
77.2198625661448
74.86077298778888
74.52124323649443
74.61339147551706
75.39961739332087
76.20195877984327
75.72229783577215
74.86213944242638
74.80174652237757
75.84663476535782
76.07005172536073
74.64357282012702
74.93214184760993
75.3859617860558
75.96783587969402
76.5774561582796
76.07494071964507
75.52078847023465
77.48557229476208
78.87162872799327
76.79247484134208
74.00597126815917
71.44945081758453
72.05028841684066
75.49137842606234
75.93365617198872
73.95266930512227
71.15955721968663
70.72105947514197
71.37539384128577
71.38195535398012
71.65249427566576
73.70520988751215
75.56262218157359
75.64417862394208
74.37395093754036
72.22406395586583
72.12811265797225
72.50043983272782
73.53135045506949
72.98469463534423
71.53479026079225
70.36078968857503
70.15872347560494
73.18697685661556
74.99765037243696
75.95522972704153
76.76993575534479
76.7894905251251
76.33759627224815
76.19867612597119
75.63590072647035
75.63798516774932
75.74600613926424
75.66984202518346
74.68375384909115
74.95601073848256
75.86667637917097
77.18337461288004
78.5489701882865
78.38123705124161
76.27966965893955
72.61020908847595
70.17877578953363
68.6943043446386
69.9552562845634
71.96473370873122
72.21175525056206
72.08578944618809
72.06866349803005
72.17894135053804
72.66575436006903
73.77549534852847
74.87127651402857
75.44037716467135
75.54873504381509
76.44801343017511
77.10998356410411
78.34013995329994
78.67804020231067
75.75501783121814
73.27568651680023
71.75051459020062
70.93579753631856
72.3581804510898
76.23007945989444
79.78233253704457
81.84113320817843
79.46889940451493
77.13854791648016
77.29987951363321
78.83591177204104
80.2894056549639
78.15520932488207
75.83282964537555
75.34473088298904
75.83060817442191
75.41372475562738
74.25294895581455
73.67902140017279
74.54157646844594
77.62268283311697
81.86044249848013
87.00491558774206
90.17049234450282
92.73412082365478
93.53334987791436
93.51352699577915
92.99523933030513
89.66527011334097
86.59431083387142
82.95653454653218
82.18305280967516
83.5841853860898
84.73811125627334
87.2329659295452
89.68268601635117
92.71770608289137
94.77045641391176
95.65935298043438
95.43062565650528
95.15365039806007
94.75119698713024
95.31593639406664
96.05441574495563
97.45437449461134
99.31143162652468
100.63818845534337
99.95694380076858
99.6610428574708
99.59377989090228
100.34589636330745
101.20293714082965
100.93204319168888
100.86788234804602
99.90732352260581
99.38359649539991
98.22835204764401
97.12845655040819
96.77745036011767
96.2638299022744
95.85963068994685
94.68264914574448
93.2801695451685
93.61585013154816
94.04256522156054
94.09475898068821
94.03070252367127
93.52427198498293
93.38697431137926
93.59334398130332
94.32525589943786
94.44815735183427
94.3068365823154
94.3421858329113
94.57911068896755
94.67918501476689
94.74303266583728
94.11398403913913
93.02887822589831
92.7985232212943
93.23828779191221
94.25953950149035
94.87247441544042
94.75600656608204
95.12459127113698
95.42978027436796
96.18255433880627
97.16881931956101
98.7441231721935
99.63519188930319
100.9624271932014
101.32576547217906
100.89944065465436
100.20336679926884
99.48392193948145
99.4601373630082
100.44837671744035
100.85488028042712
101.02369705488054
100.42401357908369
100.18058449556209
100.93274636344904
102.49021077518968
103.285206657538
102.84498813154008
102.12021630459745
101.77412066360516
102.00172126423477
103.93623090036658
105.65795599119019
107.50705225475599
108.80138824604593
109.20029719723074
109.62430714767811
110.07117414591825
110.87292573539852
111.22622221856182
110.83398310495735
109.57894185135726
108.49280566821281
108.00330471869698
108.04144481567769
108.48799149674348
107.97616930903669
107.79778711893333
107.96631067145472
108.36749375342899
109.31244206224487
109.96293101424138
110.6426285128379
111.70301631653547
113.2305718000061
114.00981818860005
114.57919936045508
114.36236623178748
112.98269455683172
111.91194454276074
111.43022115491694
112.15638222000162
113.50386537851217
113.73425046028036
112.61011478053625
110.7158437430395
109.1783184327044
108.5558676529635
108.7424139204359
109.48132839012405
110.52107919144412
111.30802526676133
111.4571811606629
111.77280440222069
112.31425277082823
112.78039739075909
112.80801760799268
112.58741604643521
112.30221431734269
112.74160919265299
113.46044107629154
114.31894441055859
114.91635724034495
115.14395119975089
115.41456554351349
115.85856223849433
116.24369806504764
116.0130406030068
115.04047520977448
113.68641845471181
112.3987349604103
111.56864136189128
111.05890032969248
111.01589110874636
111.18773815716122
111.50001317062222
111.75226169584137
112.14123740456758
113.04382108722442
114.29673055303265
115.58137969628088
116.58512931120507
117.44467058684658
117.3733402104816
117.06874310218335
116.91476716207468
116.7813444157856
117.27899932631053
117.47436973818013
117.43128771667132
117.45381549249686
118.12717507944454
119.5312653701365
120.81015208546066
122.05666206710531
122.73961019997483
122.59789999630699
121.98918501451378
121.536713608716
121.44067803272374
121.51118856349612
121.69856450212704
121.00337347859849
120.60821392957858
120.49252721925536
120.65230830183557
121.37326270060659
121.9323905223189
122.20851584572682
122.2760028242747
122.12001059395166
122.03102037863293
122.43425466134894
122.90811666699943
122.81924346975282
122.34746548929574
121.7735537778153
121.67736708798977
122.41617461075997
123.22915822605235
123.92567409027743
124.45378300284145
124.89323310953739
125.21849360709336
125.47903590404799
125.00620229565757
124.0214047962281
123.02333228556455
122.25698138791215
121.63247824653973
121.04493601180825
120.06876849508241
118.79293878012642
117.63900978626579
116.97259833519551
116.80762077026121
117.0366732791164
117.01512818831922
117.03667327911641
117.32248223747547
117.7666180680128
118.34025479259255
118.73673025808247
118.47072336802832
117.98113299203642
118.00526479764542
118.46406629259796
119.15847377405782
119.58887891932913
119.70797209531132
119.84617917695749
119.80176961476626
119.84813292551368
119.66656816578264
119.25612747114228
119.02779869150034
119.18645175933264
119.43485274367056
119.68492637414168
120.1199732915782
120.71749582438949
121.18327459622836
121.0708631574226
120.38685748627209
118.92642319904357
118.07926512204065
118.1717218104478
118.82322275271412
119.28401311231886
119.12841932345842
118.7233704468077
118.15763461533002
118.15688671659377
118.40198901175336
118.40074669024844
118.46873535880371
118.25012816879835
117.72205432830064
117.27869460910821
117.30283375317985
117.48971507804949
117.58401403055223
117.24536059534644
115.59957407980933
114.24815387639617
113.3319060719676
113.328070357975
113.80392564497211
113.30923832347058
112.85475320505448
112.24522830215457
111.81181333345982
112.10924865885389
112.06667259594856
111.68857549790138
111.29067941484278
111.37348895840722
111.41846639886627
111.8792167897313
112.34921974892318
112.75216778409043
112.93667759309453
113.00189596002572
112.75990281984697
112.05945567666733
111.0500013384629
110.20422252556013
110.25026336592055
110.96389729805794
111.86388036032999
111.76232796617103
111.0316238456682
109.98061286444593
109.13936428895634
108.89885764874788
109.18079655867244
109.73742907863327
110.64865236000301
111.14114937383545
111.22481301423548
110.93914735175326
110.45352838046092
110.39162314947919
110.85648704659492
111.18872560919347
110.09161287374693
107.82838572096051
105.3539692496021
103.64321122813963
104.72675446516708
105.75671307225784
106.78214440216288
107.12844613750286
107.40622363657235
108.47665634646043
109.6305661715848
110.87129351636788
111.60858704003077
111.92509473728457
111.96525003948851
111.94373381089893
112.41253067021353
112.73834327692876
112.91156713394307
112.717437828775
113.04922534109355
113.43956224203399
113.83496316782164
114.35670418982104
114.27160527530555
114.02578251810316
114.2423822556046
114.57662163157183
114.82725327354464
114.93916802342937
114.78121500921552
114.5351366021546
114.52991574570018
114.60263929399221
114.20852029200502
113.3774388147913
112.29610634406329
111.2512215953664
110.00545780960854
109.04561370438306
108.3851261364829
108.72254657812525
109.30760609139814
110.93847778308097
112.97554252430197
115.4635286830016
118.0620291113052
120.77138606953822
123.88507317210225
126.12772612993105
127.92544403080991
129.26936053323774
130.5574125510208
132.2301550833987
133.93008597415957
135.94867886119343
137.0333462151401
137.4460619157622
136.92463012926896
135.6606083191519
134.481278243763
132.9313994142733
131.84905434726093
130.75144535275845
130.34641689519304
130.06103458898843
129.9111503653512
129.75336946778816
128.98665484412228
128.54412398609787
127.9627303452665
126.6331545182372
124.8368137772869
122.25269263199465
120.25190847558018
118.85949363765397
117.659266662093
116.22295187916126
114.25882826685567
112.59563928414957
110.6500657083938
109.76662114288379
109.72163500829241
109.9825972270593
110.30735879334547
110.36941038063775
110.45484297333147
110.7256603115818
110.89688414260496
111.09744290977162
109.64839695043312
107.98741550811421
107.16592831104158
106.59905742974063
106.76223995522332
105.94612184691599
103.15975549468358
100.90642514703653
99.52161962792479
99.65329384943716
99.1513363550309
97.10411769933516
95.06192532637073
94.75370480100747
95.3171742658109
96.65082867784668
96.5527236202887
94.83177086429214
94.28066941654735
93.5733855311447
92.924237825644
91.83224842054743
90.54776877432145
91.22078795329618
93.15452890321953
94.60817881794105
93.15222953028605
88.58681162092049
84.04360185196728
80.30295712964234
80.55329066716993
82.05438252552793
83.25443819865234
85.35512799662058
87.53899424122955
89.45688414475917
87.95916367565026
84.117013227583
80.90194198538775
79.74111187840442
79.33341529708585
79.51010442073749
79.43759215352902
79.58873293285936
79.97247612956318
80.36464208860103
81.45083363670484
82.56783523503964
83.36926338479495
82.09948187606547
80.28580526460166
77.11057195858257
76.60681632488635
76.94799982715385
76.86324966981044
76.60482796063394
75.82306442850751
75.38705454112386
75.10039394188284
75.02612039027015
74.88732391749114
74.97667635097478
75.64479532897835
76.04352090542459
77.03934441172672
78.1376438574801
78.58100325678406
78.70295594901445
78.70478027187295
78.18596466514904
78.01796240698029
78.08057589603902
79.42935673472125
80.4621011564642
80.95013141464148
79.7364182964925
77.83164518639369
76.8791391061742
76.56485229619747
76.27500626765782
75.80737012643428
74.97760190474291
76.31734315455668
77.97008541284168
79.45317616740557
80.72543116785997
80.78860908161509
79.91261484364162
79.29347746486194
79.21868685483967
80.55106230674268
81.08940003293198
80.00688632162571
77.88462986127905
75.4078416587228
73.88367343967862
73.08980162488709
72.32481140041666
72.73092830532931
73.10622331663666
74.18320464607004
75.18375662309481
76.13757784700337
76.2304987099171
76.21542817236545
76.63434392562237
77.3707828629411
76.2075597914607
74.91655599836787
72.67729854434924
70.52242509580681
69.74853264699425
69.34196314184983
69.02594951871177
69.69781544460017
72.63395866879404
74.8336870724331
77.48261290923308
77.7902882442736
76.79001862315813
75.12440633012095
73.43399807347294
73.16069583011685
72.57707326763322
72.46174735752177
72.07108177927464
72.63170292646038
73.12083137178502
73.74803047465618
73.76703686559318
73.99194725411265
74.76299553941028
75.9160786473541
77.18671987911435
77.03036853123177
75.75463545735609
72.99512798676436
69.93411371989141
68.75903957722929
68.45480926605791
67.80103926867503
67.67048847297026
67.5287228605139
67.76248279081062
67.85506699775173
67.99493063563574
68.93362803973986
69.55179112327048
69.33938696616707
68.81012316527408
68.40465801985025
68.29461580377225
67.9892519820699
67.73813733050659
66.56582248216547
66.36788796437963
67.86554145158863
69.21736224014884
70.27086812294448
70.9712524387726
71.07854182594097
70.71997298716298
70.34925472172483
69.9652452924285
69.66343467809492
69.71093481402309
70.78583195166973
71.67312225253589
72.73554768439934
73.1027391874123
72.89308343799952
72.32543538219237
72.33909498489305
72.5004521895519
73.22741076463693
74.05092438424298
73.83703898803705
72.9230229087303
71.1008762086907
70.02790187578177
69.47169716700904
69.54753839052735
68.79731557375726
68.27512522073678
67.7449660938041
66.87254230922443
66.48293372591021
67.07874043573807
66.79118899074214
67.08320962181011
68.06271947887507
68.72352208627402
69.95863597643152
70.81876999424873
69.97748871475966
69.45488502720224
69.23639711140866
70.01386152811872
71.59644898798813
72.47545347502043
72.2952406453198
71.79494881483642
72.20344696194792
72.49209100989557
71.7462507888759
70.47079297581602
69.02986124707817
69.01058316523932
70.02982756543116
70.50302360225797
70.04376947589964
69.66795656422477
69.15209948944188
69.59138395828506
70.63206621489863
70.66123296258405
70.28770896035866
69.99391550235
72.03637505041213
73.37419215801447
73.80953747047923
72.07915809214121
69.42601010815201
68.45351327823911
68.67168862930308
68.74530109511511
68.04491036368626
67.4855921627035
68.34936942945497
67.80404689596045
66.9595951518005
65.73138488591027
64.67371463503596
65.70853191671182
66.56934290655501
66.91466703607153
67.6102307160888
68.4024838428715
68.39198451712714
68.56960893663214
69.37510014729465
71.60741417205848
74.1439635440785
75.97305041362625
76.515555746016
75.83418448777634
74.10365486660379
72.7381887314985
71.86953139001159
71.72396683814982
71.44377375204002
71.17140154278184
70.39441135991244
70.72197121036476
71.44149896307498
71.73546726855417
72.59613527977301
73.52288936356973
75.57987801817484
77.1507379327001
78.95431249173657
80.76993195794596
81.68881429766603
82.08456649961616
80.76190530424824
77.96294294276794
75.46739872114296
74.24181024060167
74.06379228915685
73.78754080635333
73.5178702453129
72.9393918546517
72.53182233381877
74.31918864699306
75.55512660287555
75.3648758345043
74.20730846087001
70.754498874906
68.76258106344869
69.08576133829362
69.08774450371898
68.60275729359203
68.81581699855235
69.09678776868779
70.29519562265835
71.78919187080278
72.20693360641282
71.7969018825355
72.25426592326065
71.54084159310683
72.08967167212501
74.39166483409998
75.7039198305655
76.70757798990799
73.82645079127298
69.61737999400023
67.61529366050976
67.53513732585989
68.83283814835218
71.34940117721045
72.5102893638479
73.21603107367724
71.77221580003453
69.49294684736905
68.84442928546167
69.24907786649175
70.55835451833119
72.92741555307593
74.97663370777076
77.17358517479198
76.91302896399263
74.88179622081017
73.40197237756122
72.49596225045875
73.01110337313818
73.90311956193165
72.95376211719864
71.64120476957294
70.12142837643819
69.87898179989679
69.90277094147476
69.70706595128408
69.36772507970774
68.80625994886867
69.95777446442617
71.95320454331042
72.08925605524641
71.76883525654844
71.67211298188425
71.50698050507933
72.68324775259151
73.44068227108797
72.84236312947851
73.22037371377486
73.49847071304697
73.02448876573891
72.98610904469533
72.66946260592235
72.4208156593892
73.39831285388256
74.36217709013704
74.42019499317122
74.0303920170158
74.0447473389715
73.85816268284049
74.93638150299441
75.52616610284534
75.35984937913537
74.73885331646233
73.31959455994848
72.14618079999728
71.60603223348193
72.50709766190299
73.02307014937229
73.374566131691
72.9084624710775
71.0718738766466
70.11604672956078
69.92986571974836
69.55052136746082
69.88028739657288
70.33905090480724
70.68415893531255
71.50733996257107
72.25934410821205
72.73468705135112
73.21978659980735
73.31361751781542
73.0181738558254
73.38236051786488
74.74866475473726
75.51524376634524
74.74178879118112
74.31630564889586
73.86331666737213
74.01167183340675
75.4889455967091
75.60799928992475
74.96330652576754
73.93969388653703
72.2332203753541
72.59146192704881
73.28955111540813
73.50797908476933
73.77125546623529
72.55222889687501
73.28509840653783
75.96023120089886
76.36022120908277
75.7087979094076
74.03012661989104
71.76636169479065
71.94685097645522
71.06975159393544
70.0172694174099
69.57704232620507
69.26676452978343
69.20194888400873
69.40128453293127
69.43980998944858
70.27074532059083
71.69310621576942
71.58774598065074
69.90426270145997
67.66462418783883
66.48268105333037
67.62286935390675
69.35510791345665
69.93731178261031
69.27629834671662
68.72593321346936
69.94875845454965
72.84169024344942
74.08617351090368
75.38299812163258
74.83218049007661
74.60154372264601
73.52850904651734
72.10834855138646
72.03212071220725
73.29784457812575
76.27290032295174
76.36276322149848
76.13706318067948
75.0435149386787
76.56015979942691
77.12079631766149
75.83031435971442
74.72686158537168
73.27393871729095
73.48786867216414
73.42900814303398
72.8302244171905
72.78257042918962
72.57273738297857
72.59188525527232
73.19261258086215
73.95436038865773
73.2030134756846
71.90505358315339
70.07264726536003
70.20592394673092
71.52307066313124
73.42021937344037
73.80528654638552
72.07557715545103
70.07649946155018
68.0142037225425
69.00004088203849
70.72806108934174
70.5570969950805
70.01430737430074
70.25194264001799
71.58500748671959
73.76576899474183
74.8155163533549
74.65797089837679
74.26348711653819
73.81996531123262
73.96240443946823
74.18133285528513
74.25749105531732
73.85710274734201
72.96291067038523
72.16573052390783
71.49900100761592
71.93654363966678
72.08602133592443
72.0795685174615
72.030273471234
71.74435593008023
72.15077087571406
72.43599442225181
72.02878070006885
72.0579453025635
71.77708985918557
71.65636608218612
71.79301336031435
71.40114349992113
71.26496839147202
71.10622671595165
70.65341543167905
71.16238468005216
72.54830809730942
73.89583620697967
76.62703875157916
77.75764991408836
78.66843328867047
77.6746892398564
75.8281785931874
74.79299365871552
72.99847354357217
72.42997546233622
72.03481602298037
71.18774991645991
70.78885788123233
71.08423454771076
71.11318503333221
71.41232716898764
71.88720045105774
71.57674330073814
71.0871625599172
70.69294662940014
70.30547243931436
70.49389255518211
70.15985751394248
69.60395897286027
68.69029658947284
67.148893296382
66.63346654657373
66.07667032767148
66.22491076453764
66.75618895470383
67.51874071417589
68.46490720292033
69.15506764643347
69.86570176681859
70.62294631880057
70.96829080697216
70.55218842154429
70.15923698570384
69.7238123527888
70.08099814828091
71.04300320419439
71.64548114803294
71.30834199245362
70.75016603278061
70.06592136752234
69.37847407764355
68.95381516253212
68.35942621372298
68.3528039670436
68.98664301945993
69.86856130756388
70.48365465681098
70.05388355442197
69.82490987985244
70.12061645343346
70.10374672023242
70.34512989189196
70.16935662350392
69.96682529826016
70.49785608223573
70.85463428364865
71.17973149453084
71.36980070081077
71.40776156165896
70.89820841730517
70.95622913792918
71.85028628317582
73.09485051301272
73.76388253263998
74.0111427255237
73.55671923759243
72.50556089884302
72.58078076031842
72.80214874233634
72.81409035251524
73.05783420802905
73.50972857256362
74.20906081525811
74.44929329265521
74.53796536271915
73.88693258145327
73.22676980724863
72.83195694723535
72.94043452637695
72.67919962599751
71.65409047717647
71.34423243048874
70.69075950830067
72.01205776033879
73.34700565123009
73.41373281499848
73.60729802071616
72.96266049513525
72.68057904001465
72.36455168955786
72.2656789879937
72.96203755450134
73.32395976315325
73.06283427393515
72.03496779267385
71.33177645426862
70.94176966461718
70.91485532045061
70.85264173546778
70.95902603765236
71.5233403861518
72.39173869418529
72.42131559950118
71.63374212886535
71.16537923877786
70.82580060511292
70.65815493552626
70.36650216454024
69.38374447302948
68.18345788305388
68.1581326207218
68.31766988218311
68.67850936355322
67.614341644881
66.31036906206427
65.71531687378345
66.27206525220006
69.15755084413101
70.38328289286491
70.36877219364268
70.04726107009543
69.28857800692211
70.0177451864364
71.19026799130957
71.48825314014587
71.27936667487866
71.56801318726168
72.13591404064964
72.54701164638263
73.03694484014369
73.0273816512451
72.55344555070535
73.48735782200418
74.31809618173318
76.30991478620142
76.90818081269352
76.23586562869541
75.63659486449447
74.46550518612253
74.20080337233135
74.52226581140843
74.23190305337624
73.75292881656281
73.88355656505652
74.12008724368434
74.53155795361157
75.2405959957361
75.31330991494883
74.32791822756944
73.64197730174084
72.62276580770026
71.66148249396628
71.30601531213622
70.77980787718714
70.1288202396381
69.9636563884823
69.93731389617656
69.93301470510127
70.49643153922409
70.72816202120816
70.21146910347134
69.62744792739139
68.31977727763024
67.07437969288071
67.59858303658001
68.52845459724657
69.91532319452337
70.29765937685956
69.80062065461425
69.90228209883828
71.4192803236478
75.65620853952562
79.2814162002649
81.68738598056328
82.55799820985283
81.97316368444652
80.52297771980136
79.09903733534004
77.73655773160517
76.70266519334754
77.62764536986333
80.50177776211765
84.26495224283927
88.94286965943829
94.14538289312004
97.52564570661703
96.75877139023538
91.02645761812276
83.3783767217397
74.74412350708103
70.95859386936829
72.53545666864207
75.3682641521139
75.65921767631183
73.78930608188935
71.56074598829156
71.42582724584884
73.45109482077264
76.8394559016819
79.85767169273393
81.9169127968542
85.96319482347026
89.27548283633222
91.40458099401565
91.17406977307716
90.05182237781997
88.23940413676206
85.52920470416191
82.06051007880663
78.64392033028386
76.61904694311906
75.72588450859216
76.72512393841549
77.58391388181826
78.86805009111065
79.02126284266718
78.72495668659596
77.16145540165084
74.86213496517581
72.41071879340961
71.40474785279702
70.75540642132555
70.88290202294354
70.30187091445643
70.07794385108053
71.32179836170833
72.2703774710616
73.07081020677732
71.93087404627389
70.12202253550416
69.27827178712371
69.8939960704173
69.87479825885217
68.93594353351457
67.8377062144134
67.84431384991787
68.72496878427435
69.43550271064983
68.93618258712397
68.40187809362877
68.35804032157947
69.15028971038022
69.8171918883993
69.93123071627248
69.38771174053365
68.72015219607101
68.51062864787843
68.24196515878938
68.56294337656654
68.06074144841645
68.56197960942366
68.27791636863063
69.07814307639524
68.33212156651052
68.60579132215035
68.83923833056684
70.48160372937699
70.20983470978084
69.851044221516
68.76219742514863
68.77896249629693
69.42546904951928
70.48074817219339
69.89259894375624
69.95164612054245
68.47285388376595
68.58459229854506
69.15680418043047
70.22300939420033
69.98354613019079
69.3320000460403
67.98075651171375
68.3558178181787
69.334228077838
70.52727116723482
70.3583530685411
70.64742820199385
73.06299612286459
79.07012214488361
83.68211117029571
86.62690957453337
87.97217034671807
86.52458350162244
82.77281063508886
77.95076149435391
74.63516576839473
